# OpenSignals Text File Format. Version 1
# {"98:D3:51:FD:97:3E": {"position": 0, "device": "bitalino_rev", "device name": "98:D3:51:FD:97:3E", "device connection": "BTH98:D3:51:FD:97:3E", "sampling rate": 100, "resolution": [4, 1, 1, 1, 1, 10, 10], "firmware version": 1281, "comments": "", "keywords": "", "mode": 0, "sync interval": 2, "date": "2023-5-29", "time": "17:1:36.548", "channels": [1, 2], "sensor": ["ECGBIT", "RAW"], "label": ["A1", "A2"], "column": ["nSeq", "I1", "I2", "O1", "O2", "A1", "A2"], "special": [{}, {}], "digital IO": [0, 0, 1, 1], "convertedValues": 0}}
# EndOfHeader
0	0	0	0	0	420	243	
1	0	0	0	0	445	263	
2	0	0	0	0	484	277	
3	0	0	0	0	480	286	
4	0	0	0	0	499	290	
5	0	0	0	0	489	289	
6	0	0	0	0	513	285	
7	0	0	0	0	506	275	
8	0	0	0	0	524	265	
9	0	0	0	0	514	253	
10	0	0	0	0	531	241	
11	0	0	0	0	521	230	
12	0	0	0	0	539	219	
13	0	0	0	0	540	211	
14	0	0	0	0	548	203	
15	0	0	0	0	553	199	
0	0	0	0	0	559	196	
1	0	0	0	0	541	195	
2	0	0	0	0	538	195	
3	0	0	0	0	530	200	
4	0	0	0	0	517	212	
5	0	0	0	0	490	236	
6	0	0	0	0	489	275	
7	0	0	0	0	473	335	
8	0	0	0	0	473	413	
9	0	0	0	0	466	505	
10	0	0	0	0	483	604	
11	0	0	0	0	471	700	
12	0	0	0	0	489	787	
13	0	0	0	0	490	858	
14	0	0	0	0	499	907	
15	0	0	0	0	497	929	
0	0	0	0	0	501	929	
1	0	0	0	0	485	906	
2	0	0	0	0	510	862	
3	0	0	0	0	491	804	
4	0	0	0	0	510	734	
5	0	0	0	0	489	659	
6	0	0	0	0	507	577	
7	0	0	0	0	507	496	
8	0	0	0	0	523	416	
9	0	0	0	0	531	342	
10	0	0	0	0	532	272	
11	0	0	0	0	531	210	
12	0	0	0	0	523	158	
13	0	0	0	0	487	117	
14	0	0	0	0	502	86	
15	0	0	0	0	483	66	
0	0	0	0	0	497	57	
1	0	0	0	0	483	59	
2	0	0	0	0	499	69	
3	0	0	0	0	486	87	
4	0	0	0	0	511	111	
5	0	0	0	0	490	140	
6	0	0	0	0	534	171	
7	0	0	0	0	631	204	
8	0	0	0	0	779	234	
9	0	0	0	0	600	260	
10	0	0	0	0	389	281	
11	0	0	0	0	402	297	
12	0	0	0	0	453	308	
13	0	0	0	0	471	313	
14	0	0	0	0	487	315	
15	0	0	0	0	487	312	
0	0	0	0	0	501	305	
1	0	0	0	0	500	297	
2	0	0	0	0	512	286	
3	0	0	0	0	514	276	
4	0	0	0	0	523	266	
5	0	0	0	0	523	256	
6	0	0	0	0	540	247	
7	0	0	0	0	534	239	
8	0	0	0	0	542	232	
9	0	0	0	0	546	227	
10	0	0	0	0	562	224	
11	0	0	0	0	555	222	
12	0	0	0	0	560	222	
13	0	0	0	0	536	223	
14	0	0	0	0	544	228	
15	0	0	0	0	510	241	
0	0	0	0	0	510	263	
1	0	0	0	0	477	302	
2	0	0	0	0	476	358	
3	0	0	0	0	464	432	
4	0	0	0	0	474	516	
5	0	0	0	0	470	603	
6	0	0	0	0	482	685	
7	0	0	0	0	481	752	
8	0	0	0	0	494	802	
9	0	0	0	0	481	831	
10	0	0	0	0	497	837	
11	0	0	0	0	498	823	
12	0	0	0	0	502	788	
13	0	0	0	0	497	738	
14	0	0	0	0	502	677	
15	0	0	0	0	487	609	
0	0	0	0	0	503	536	
1	0	0	0	0	494	462	
2	0	0	0	0	514	391	
3	0	0	0	0	503	323	
4	0	0	0	0	520	260	
5	0	0	0	0	521	207	
6	0	0	0	0	539	163	
7	0	0	0	0	527	128	
8	0	0	0	0	522	105	
9	0	0	0	0	499	91	
10	0	0	0	0	497	84	
11	0	0	0	0	487	87	
12	0	0	0	0	500	100	
13	0	0	0	0	493	122	
14	0	0	0	0	494	148	
15	0	0	0	0	497	177	
0	0	0	0	0	510	209	
1	0	0	0	0	498	241	
2	0	0	0	0	539	271	
3	0	0	0	0	649	300	
4	0	0	0	0	790	324	
5	0	0	0	0	581	342	
6	0	0	0	0	376	354	
7	0	0	0	0	401	360	
8	0	0	0	0	457	363	
9	0	0	0	0	470	361	
10	0	0	0	0	492	358	
11	0	0	0	0	483	352	
12	0	0	0	0	501	342	
13	0	0	0	0	503	332	
14	0	0	0	0	507	319	
15	0	0	0	0	509	311	
0	0	0	0	0	533	301	
1	0	0	0	0	523	294	
2	0	0	0	0	536	287	
3	0	0	0	0	537	282	
4	0	0	0	0	543	278	
5	0	0	0	0	544	275	
6	0	0	0	0	559	275	
7	0	0	0	0	544	277	
8	0	0	0	0	560	280	
9	0	0	0	0	538	286	
10	0	0	0	0	545	295	
11	0	0	0	0	511	312	
12	0	0	0	0	497	342	
13	0	0	0	0	484	389	
14	0	0	0	0	484	450	
15	0	0	0	0	466	526	
0	0	0	0	0	479	610	
1	0	0	0	0	471	695	
2	0	0	0	0	488	770	
3	0	0	0	0	478	831	
4	0	0	0	0	490	871	
5	0	0	0	0	489	891	
6	0	0	0	0	499	888	
7	0	0	0	0	492	862	
8	0	0	0	0	499	820	
9	0	0	0	0	498	764	
10	0	0	0	0	501	698	
11	0	0	0	0	492	627	
12	0	0	0	0	512	552	
13	0	0	0	0	504	479	
14	0	0	0	0	517	407	
15	0	0	0	0	515	343	
0	0	0	0	0	536	286	
1	0	0	0	0	531	238	
2	0	0	0	0	527	199	
3	0	0	0	0	511	170	
4	0	0	0	0	502	151	
5	0	0	0	0	484	143	
6	0	0	0	0	504	145	
7	0	0	0	0	485	158	
8	0	0	0	0	499	179	
9	0	0	0	0	488	207	
10	0	0	0	0	504	239	
11	0	0	0	0	495	272	
12	0	0	0	0	516	306	
13	0	0	0	0	579	338	
14	0	0	0	0	748	367	
15	0	0	0	0	687	391	
0	0	0	0	0	444	410	
1	0	0	0	0	389	423	
2	0	0	0	0	438	431	
3	0	0	0	0	458	433	
4	0	0	0	0	483	430	
5	0	0	0	0	489	425	
6	0	0	0	0	497	416	
7	0	0	0	0	496	407	
8	0	0	0	0	515	396	
9	0	0	0	0	503	384	
10	0	0	0	0	522	373	
11	0	0	0	0	516	360	
12	0	0	0	0	531	348	
13	0	0	0	0	526	338	
14	0	0	0	0	546	327	
15	0	0	0	0	536	319	
0	0	0	0	0	556	312	
1	0	0	0	0	551	305	
2	0	0	0	0	561	301	
3	0	0	0	0	543	300	
4	0	0	0	0	543	303	
5	0	0	0	0	512	312	
6	0	0	0	0	508	331	
7	0	0	0	0	489	366	
8	0	0	0	0	484	417	
9	0	0	0	0	472	483	
10	0	0	0	0	473	561	
11	0	0	0	0	467	642	
12	0	0	0	0	488	720	
13	0	0	0	0	472	784	
14	0	0	0	0	494	830	
15	0	0	0	0	484	854	
0	0	0	0	0	494	857	
1	0	0	0	0	489	840	
2	0	0	0	0	505	806	
3	0	0	0	0	488	756	
4	0	0	0	0	503	696	
5	0	0	0	0	497	629	
6	0	0	0	0	506	559	
7	0	0	0	0	489	490	
8	0	0	0	0	509	422	
9	0	0	0	0	508	361	
10	0	0	0	0	526	305	
11	0	0	0	0	528	259	
12	0	0	0	0	536	219	
13	0	0	0	0	524	190	
14	0	0	0	0	534	171	
15	0	0	0	0	496	161	
0	0	0	0	0	499	161	
1	0	0	0	0	493	172	
2	0	0	0	0	493	189	
3	0	0	0	0	488	214	
4	0	0	0	0	497	244	
5	0	0	0	0	495	278	
6	0	0	0	0	500	311	
7	0	0	0	0	494	344	
8	0	0	0	0	523	374	
9	0	0	0	0	614	398	
10	0	0	0	0	771	417	
11	0	0	0	0	653	431	
12	0	0	0	0	404	438	
13	0	0	0	0	390	443	
14	0	0	0	0	438	442	
15	0	0	0	0	459	437	
0	0	0	0	0	485	429	
1	0	0	0	0	484	419	
2	0	0	0	0	505	406	
3	0	0	0	0	500	393	
4	0	0	0	0	508	383	
5	0	0	0	0	512	372	
6	0	0	0	0	517	361	
7	0	0	0	0	518	350	
8	0	0	0	0	531	340	
9	0	0	0	0	524	333	
10	0	0	0	0	544	326	
11	0	0	0	0	536	321	
12	0	0	0	0	560	318	
13	0	0	0	0	555	314	
14	0	0	0	0	548	313	
15	0	0	0	0	537	317	
0	0	0	0	0	543	327	
1	0	0	0	0	520	348	
2	0	0	0	0	506	385	
3	0	0	0	0	485	439	
4	0	0	0	0	477	510	
5	0	0	0	0	475	591	
6	0	0	0	0	472	678	
7	0	0	0	0	473	762	
8	0	0	0	0	485	838	
9	0	0	0	0	477	896	
10	0	0	0	0	489	932	
11	0	0	0	0	485	945	
12	0	0	0	0	491	941	
13	0	0	0	0	493	914	
14	0	0	0	0	500	870	
15	0	0	0	0	486	814	
0	0	0	0	0	505	748	
1	0	0	0	0	498	678	
2	0	0	0	0	499	604	
3	0	0	0	0	496	531	
4	0	0	0	0	514	462	
5	0	0	0	0	509	399	
6	0	0	0	0	529	342	
7	0	0	0	0	530	294	
8	0	0	0	0	535	255	
9	0	0	0	0	521	227	
10	0	0	0	0	520	211	
11	0	0	0	0	493	204	
12	0	0	0	0	492	208	
13	0	0	0	0	485	221	
14	0	0	0	0	496	242	
15	0	0	0	0	493	270	
0	0	0	0	0	499	299	
1	0	0	0	0	491	329	
2	0	0	0	0	505	361	
3	0	0	0	0	504	393	
4	0	0	0	0	568	422	
5	0	0	0	0	696	447	
6	0	0	0	0	762	465	
7	0	0	0	0	508	477	
8	0	0	0	0	377	482	
9	0	0	0	0	417	481	
10	0	0	0	0	463	473	
11	0	0	0	0	471	464	
12	0	0	0	0	493	450	
13	0	0	0	0	488	435	
14	0	0	0	0	500	420	
15	0	0	0	0	497	406	
0	0	0	0	0	523	391	
1	0	0	0	0	510	379	
2	0	0	0	0	528	368	
3	0	0	0	0	522	357	
4	0	0	0	0	535	349	
5	0	0	0	0	536	343	
6	0	0	0	0	544	338	
7	0	0	0	0	547	335	
8	0	0	0	0	559	333	
9	0	0	0	0	546	333	
10	0	0	0	0	555	334	
11	0	0	0	0	537	342	
12	0	0	0	0	532	360	
13	0	0	0	0	509	390	
14	0	0	0	0	498	435	
15	0	0	0	0	471	497	
0	0	0	0	0	478	572	
1	0	0	0	0	469	656	
2	0	0	0	0	472	740	
3	0	0	0	0	471	819	
4	0	0	0	0	482	883	
5	0	0	0	0	479	929	
6	0	0	0	0	496	946	
7	0	0	0	0	486	946	
8	0	0	0	0	492	942	
9	0	0	0	0	489	906	
10	0	0	0	0	505	857	
11	0	0	0	0	486	798	
12	0	0	0	0	513	729	
13	0	0	0	0	495	656	
14	0	0	0	0	505	583	
15	0	0	0	0	504	510	
0	0	0	0	0	516	441	
1	0	0	0	0	510	380	
2	0	0	0	0	535	326	
3	0	0	0	0	524	282	
4	0	0	0	0	534	246	
5	0	0	0	0	516	222	
6	0	0	0	0	508	209	
7	0	0	0	0	490	207	
8	0	0	0	0	494	216	
9	0	0	0	0	484	231	
10	0	0	0	0	497	255	
11	0	0	0	0	488	284	
12	0	0	0	0	499	318	
13	0	0	0	0	493	352	
14	0	0	0	0	506	385	
15	0	0	0	0	521	414	
0	0	0	0	0	631	439	
1	0	0	0	0	774	458	
2	0	0	0	0	633	471	
3	0	0	0	0	381	477	
4	0	0	0	0	410	478	
5	0	0	0	0	435	474	
6	0	0	0	0	468	466	
7	0	0	0	0	471	455	
8	0	0	0	0	495	442	
9	0	0	0	0	483	427	
10	0	0	0	0	506	413	
11	0	0	0	0	502	399	
12	0	0	0	0	518	387	
13	0	0	0	0	510	375	
14	0	0	0	0	525	364	
15	0	0	0	0	513	358	
0	0	0	0	0	550	353	
1	0	0	0	0	531	351	
2	0	0	0	0	552	348	
3	0	0	0	0	542	345	
4	0	0	0	0	559	343	
5	0	0	0	0	546	344	
6	0	0	0	0	545	352	
7	0	0	0	0	528	366	
8	0	0	0	0	526	390	
9	0	0	0	0	499	428	
10	0	0	0	0	491	480	
11	0	0	0	0	470	548	
12	0	0	0	0	479	627	
13	0	0	0	0	472	710	
14	0	0	0	0	480	789	
15	0	0	0	0	467	856	
0	0	0	0	0	491	908	
1	0	0	0	0	485	937	
2	0	0	0	0	495	944	
3	0	0	0	0	487	934	
4	0	0	0	0	493	903	
5	0	0	0	0	493	856	
6	0	0	0	0	495	796	
7	0	0	0	0	494	728	
8	0	0	0	0	504	656	
9	0	0	0	0	498	583	
10	0	0	0	0	509	510	
11	0	0	0	0	505	440	
12	0	0	0	0	521	377	
13	0	0	0	0	523	321	
14	0	0	0	0	534	273	
15	0	0	0	0	525	235	
0	0	0	0	0	523	207	
1	0	0	0	0	496	192	
2	0	0	0	0	495	190	
3	0	0	0	0	490	197	
4	0	0	0	0	493	213	
5	0	0	0	0	486	237	
6	0	0	0	0	499	268	
7	0	0	0	0	493	300	
8	0	0	0	0	501	334	
9	0	0	0	0	493	367	
10	0	0	0	0	543	397	
11	0	0	0	0	646	425	
12	0	0	0	0	795	448	
13	0	0	0	0	585	467	
14	0	0	0	0	386	479	
15	0	0	0	0	414	486	
0	0	0	0	0	448	489	
1	0	0	0	0	462	487	
2	0	0	0	0	488	481	
3	0	0	0	0	484	472	
4	0	0	0	0	505	462	
5	0	0	0	0	499	448	
6	0	0	0	0	519	436	
7	0	0	0	0	513	425	
8	0	0	0	0	529	414	
9	0	0	0	0	521	403	
10	0	0	0	0	540	395	
11	0	0	0	0	524	387	
12	0	0	0	0	547	380	
13	0	0	0	0	548	375	
14	0	0	0	0	561	372	
15	0	0	0	0	555	369	
0	0	0	0	0	557	368	
1	0	0	0	0	544	373	
2	0	0	0	0	546	384	
3	0	0	0	0	509	405	
4	0	0	0	0	504	440	
5	0	0	0	0	474	492	
6	0	0	0	0	477	556	
7	0	0	0	0	463	634	
8	0	0	0	0	477	716	
9	0	0	0	0	464	796	
10	0	0	0	0	476	865	
11	0	0	0	0	480	917	
12	0	0	0	0	494	944	
13	0	0	0	0	480	946	
14	0	0	0	0	495	946	
15	0	0	0	0	499	918	
0	0	0	0	0	499	872	
1	0	0	0	0	494	813	
2	0	0	0	0	501	746	
3	0	0	0	0	491	673	
4	0	0	0	0	506	598	
5	0	0	0	0	490	524	
6	0	0	0	0	511	453	
7	0	0	0	0	515	387	
8	0	0	0	0	521	329	
9	0	0	0	0	533	282	
10	0	0	0	0	535	245	
11	0	0	0	0	518	219	
12	0	0	0	0	514	205	
13	0	0	0	0	494	200	
14	0	0	0	0	499	207	
15	0	0	0	0	487	223	
0	0	0	0	0	495	247	
1	0	0	0	0	489	276	
2	0	0	0	0	505	308	
3	0	0	0	0	491	341	
4	0	0	0	0	502	374	
5	0	0	0	0	506	404	
6	0	0	0	0	579	430	
7	0	0	0	0	739	452	
8	0	0	0	0	696	466	
9	0	0	0	0	434	476	
10	0	0	0	0	388	479	
11	0	0	0	0	425	479	
12	0	0	0	0	465	473	
13	0	0	0	0	471	466	
14	0	0	0	0	492	456	
15	0	0	0	0	497	446	
0	0	0	0	0	506	433	
1	0	0	0	0	510	420	
2	0	0	0	0	523	407	
3	0	0	0	0	508	394	
4	0	0	0	0	531	383	
5	0	0	0	0	526	372	
6	0	0	0	0	545	361	
7	0	0	0	0	539	354	
8	0	0	0	0	547	346	
9	0	0	0	0	545	340	
10	0	0	0	0	560	336	
11	0	0	0	0	551	335	
12	0	0	0	0	551	338	
13	0	0	0	0	536	345	
14	0	0	0	0	528	363	
15	0	0	0	0	498	396	
0	0	0	0	0	497	444	
1	0	0	0	0	476	510	
2	0	0	0	0	482	588	
3	0	0	0	0	467	672	
4	0	0	0	0	468	756	
5	0	0	0	0	475	831	
6	0	0	0	0	491	891	
7	0	0	0	0	479	929	
8	0	0	0	0	489	945	
9	0	0	0	0	484	945	
10	0	0	0	0	488	923	
11	0	0	0	0	497	884	
12	0	0	0	0	505	832	
13	0	0	0	0	490	771	
14	0	0	0	0	504	705	
15	0	0	0	0	494	636	
0	0	0	0	0	513	566	
1	0	0	0	0	508	496	
2	0	0	0	0	518	431	
3	0	0	0	0	519	374	
4	0	0	0	0	537	322	
5	0	0	0	0	525	282	
6	0	0	0	0	521	252	
7	0	0	0	0	494	232	
8	0	0	0	0	497	224	
9	0	0	0	0	482	227	
10	0	0	0	0	504	239	
11	0	0	0	0	491	262	
12	0	0	0	0	493	290	
13	0	0	0	0	490	321	
14	0	0	0	0	504	355	
15	0	0	0	0	494	389	
0	0	0	0	0	540	420	
1	0	0	0	0	667	446	
2	0	0	0	0	794	467	
3	0	0	0	0	572	481	
4	0	0	0	0	386	492	
5	0	0	0	0	415	496	
6	0	0	0	0	449	495	
7	0	0	0	0	467	489	
8	0	0	0	0	489	481	
9	0	0	0	0	483	471	
10	0	0	0	0	503	457	
11	0	0	0	0	497	444	
12	0	0	0	0	515	429	
13	0	0	0	0	509	417	
14	0	0	0	0	521	404	
15	0	0	0	0	521	394	
0	0	0	0	0	532	384	
1	0	0	0	0	541	376	
2	0	0	0	0	550	370	
3	0	0	0	0	548	366	
4	0	0	0	0	555	362	
5	0	0	0	0	545	361	
6	0	0	0	0	554	364	
7	0	0	0	0	536	369	
8	0	0	0	0	540	382	
9	0	0	0	0	507	406	
10	0	0	0	0	507	444	
11	0	0	0	0	476	499	
12	0	0	0	0	481	569	
13	0	0	0	0	470	648	
14	0	0	0	0	468	732	
15	0	0	0	0	473	812	
0	0	0	0	0	480	880	
1	0	0	0	0	480	930	
2	0	0	0	0	487	946	
3	0	0	0	0	482	946	
4	0	0	0	0	497	946	
5	0	0	0	0	496	927	
6	0	0	0	0	507	884	
7	0	0	0	0	487	828	
8	0	0	0	0	504	763	
9	0	0	0	0	491	691	
10	0	0	0	0	497	619	
11	0	0	0	0	506	546	
12	0	0	0	0	522	478	
13	0	0	0	0	513	414	
14	0	0	0	0	528	358	
15	0	0	0	0	534	308	
0	0	0	0	0	530	272	
1	0	0	0	0	505	244	
2	0	0	0	0	505	227	
3	0	0	0	0	485	223	
4	0	0	0	0	496	227	
5	0	0	0	0	483	240	
6	0	0	0	0	499	262	
7	0	0	0	0	487	288	
8	0	0	0	0	502	318	
9	0	0	0	0	491	353	
10	0	0	0	0	510	385	
11	0	0	0	0	552	417	
12	0	0	0	0	691	443	
13	0	0	0	0	795	464	
14	0	0	0	0	558	480	
15	0	0	0	0	370	490	
0	0	0	0	0	428	495	
1	0	0	0	0	440	494	
2	0	0	0	0	475	486	
3	0	0	0	0	481	476	
4	0	0	0	0	495	464	
5	0	0	0	0	484	451	
6	0	0	0	0	506	436	
7	0	0	0	0	506	422	
8	0	0	0	0	518	410	
9	0	0	0	0	515	399	
10	0	0	0	0	529	390	
11	0	0	0	0	528	383	
12	0	0	0	0	536	375	
13	0	0	0	0	534	369	
14	0	0	0	0	551	365	
15	0	0	0	0	552	364	
0	0	0	0	0	551	366	
1	0	0	0	0	551	371	
2	0	0	0	0	545	381	
3	0	0	0	0	521	401	
4	0	0	0	0	520	433	
5	0	0	0	0	487	482	
6	0	0	0	0	481	547	
7	0	0	0	0	472	628	
8	0	0	0	0	472	715	
9	0	0	0	0	468	804	
10	0	0	0	0	483	885	
11	0	0	0	0	476	944	
12	0	0	0	0	484	946	
13	0	0	0	0	480	946	
14	0	0	0	0	490	946	
15	0	0	0	0	490	946	
0	0	0	0	0	495	946	
1	0	0	0	0	492	944	
2	0	0	0	0	499	880	
3	0	0	0	0	497	812	
4	0	0	0	0	504	737	
5	0	0	0	0	495	661	
6	0	0	0	0	508	586	
7	0	0	0	0	500	513	
8	0	0	0	0	516	444	
9	0	0	0	0	519	383	
10	0	0	0	0	535	330	
11	0	0	0	0	527	289	
12	0	0	0	0	525	256	
13	0	0	0	0	511	236	
14	0	0	0	0	497	229	
15	0	0	0	0	486	233	
0	0	0	0	0	494	246	
1	0	0	0	0	487	267	
2	0	0	0	0	499	293	
3	0	0	0	0	486	323	
4	0	0	0	0	499	356	
5	0	0	0	0	495	387	
6	0	0	0	0	509	417	
7	0	0	0	0	558	444	
8	0	0	0	0	719	464	
9	0	0	0	0	766	479	
10	0	0	0	0	499	487	
11	0	0	0	0	375	492	
12	0	0	0	0	424	489	
13	0	0	0	0	447	482	
14	0	0	0	0	473	471	
15	0	0	0	0	480	459	
0	0	0	0	0	490	444	
1	0	0	0	0	489	430	
2	0	0	0	0	507	418	
3	0	0	0	0	507	406	
4	0	0	0	0	512	396	
5	0	0	0	0	520	386	
6	0	0	0	0	528	378	
7	0	0	0	0	530	372	
8	0	0	0	0	539	366	
9	0	0	0	0	543	361	
10	0	0	0	0	557	359	
11	0	0	0	0	545	358	
12	0	0	0	0	558	360	
13	0	0	0	0	549	366	
14	0	0	0	0	548	378	
15	0	0	0	0	518	400	
0	0	0	0	0	512	438	
1	0	0	0	0	492	493	
2	0	0	0	0	478	567	
3	0	0	0	0	468	654	
4	0	0	0	0	470	747	
5	0	0	0	0	470	838	
6	0	0	0	0	481	918	
7	0	0	0	0	480	946	
8	0	0	0	0	488	946	
9	0	0	0	0	479	946	
10	0	0	0	0	495	946	
11	0	0	0	0	490	946	
12	0	0	0	0	502	946	
13	0	0	0	0	493	946	
14	0	0	0	0	497	930	
15	0	0	0	0	499	861	
0	0	0	0	0	505	784	
1	0	0	0	0	494	703	
2	0	0	0	0	500	621	
3	0	0	0	0	504	543	
4	0	0	0	0	509	469	
5	0	0	0	0	512	403	
6	0	0	0	0	535	345	
7	0	0	0	0	532	299	
8	0	0	0	0	534	263	
9	0	0	0	0	510	239	
10	0	0	0	0	505	227	
11	0	0	0	0	493	225	
12	0	0	0	0	491	235	
13	0	0	0	0	487	253	
14	0	0	0	0	493	276	
15	0	0	0	0	495	304	
0	0	0	0	0	497	334	
1	0	0	0	0	487	362	
2	0	0	0	0	510	391	
3	0	0	0	0	523	414	
4	0	0	0	0	643	433	
5	0	0	0	0	786	447	
6	0	0	0	0	615	457	
7	0	0	0	0	371	460	
8	0	0	0	0	409	462	
9	0	0	0	0	435	457	
10	0	0	0	0	472	450	
11	0	0	0	0	480	439	
12	0	0	0	0	491	428	
13	0	0	0	0	498	415	
14	0	0	0	0	508	403	
15	0	0	0	0	497	394	
0	0	0	0	0	521	384	
1	0	0	0	0	513	377	
2	0	0	0	0	522	371	
3	0	0	0	0	528	367	
4	0	0	0	0	535	364	
5	0	0	0	0	534	363	
6	0	0	0	0	551	363	
7	0	0	0	0	545	364	
8	0	0	0	0	561	365	
9	0	0	0	0	553	366	
10	0	0	0	0	548	373	
11	0	0	0	0	532	389	
12	0	0	0	0	518	417	
13	0	0	0	0	495	461	
14	0	0	0	0	486	522	
15	0	0	0	0	474	601	
0	0	0	0	0	474	690	
1	0	0	0	0	469	781	
2	0	0	0	0	470	870	
3	0	0	0	0	476	942	
4	0	0	0	0	480	946	
5	0	0	0	0	482	946	
6	0	0	0	0	487	946	
7	0	0	0	0	491	946	
8	0	0	0	0	496	946	
9	0	0	0	0	495	946	
10	0	0	0	0	502	946	
11	0	0	0	0	499	883	
12	0	0	0	0	503	806	
13	0	0	0	0	504	724	
14	0	0	0	0	494	641	
15	0	0	0	0	494	560	
0	0	0	0	0	503	481	
1	0	0	0	0	496	410	
2	0	0	0	0	519	347	
3	0	0	0	0	518	295	
4	0	0	0	0	530	254	
5	0	0	0	0	530	227	
6	0	0	0	0	527	214	
7	0	0	0	0	523	213	
8	0	0	0	0	501	222	
9	0	0	0	0	492	240	
10	0	0	0	0	495	265	
11	0	0	0	0	493	295	
12	0	0	0	0	496	329	
13	0	0	0	0	499	362	
14	0	0	0	0	501	394	
15	0	0	0	0	495	421	
0	0	0	0	0	507	443	
1	0	0	0	0	550	460	
2	0	0	0	0	684	471	
3	0	0	0	0	764	475	
4	0	0	0	0	555	473	
5	0	0	0	0	374	468	
6	0	0	0	0	419	460	
7	0	0	0	0	443	449	
8	0	0	0	0	475	437	
9	0	0	0	0	478	425	
10	0	0	0	0	491	414	
11	0	0	0	0	496	403	
12	0	0	0	0	508	393	
13	0	0	0	0	508	385	
14	0	0	0	0	526	376	
15	0	0	0	0	512	369	
0	0	0	0	0	523	364	
1	0	0	0	0	532	360	
2	0	0	0	0	537	358	
3	0	0	0	0	541	357	
4	0	0	0	0	547	358	
5	0	0	0	0	557	361	
6	0	0	0	0	558	366	
7	0	0	0	0	551	374	
8	0	0	0	0	543	384	
9	0	0	0	0	530	402	
10	0	0	0	0	521	429	
11	0	0	0	0	494	470	
12	0	0	0	0	485	528	
13	0	0	0	0	466	602	
14	0	0	0	0	476	687	
15	0	0	0	0	466	776	
0	0	0	0	0	477	861	
1	0	0	0	0	475	933	
2	0	0	0	0	485	946	
3	0	0	0	0	480	946	
4	0	0	0	0	494	946	
5	0	0	0	0	494	946	
6	0	0	0	0	496	946	
7	0	0	0	0	490	946	
8	0	0	0	0	500	946	
9	0	0	0	0	497	887	
10	0	0	0	0	499	811	
11	0	0	0	0	501	728	
12	0	0	0	0	503	642	
13	0	0	0	0	504	558	
14	0	0	0	0	512	479	
15	0	0	0	0	517	409	
0	0	0	0	0	522	351	
1	0	0	0	0	526	303	
2	0	0	0	0	524	268	
3	0	0	0	0	507	245	
4	0	0	0	0	501	233	
5	0	0	0	0	492	232	
6	0	0	0	0	497	240	
7	0	0	0	0	489	258	
8	0	0	0	0	505	283	
9	0	0	0	0	490	312	
10	0	0	0	0	502	345	
11	0	0	0	0	503	379	
12	0	0	0	0	513	411	
13	0	0	0	0	571	438	
14	0	0	0	0	700	458	
15	0	0	0	0	657	474	
0	0	0	0	0	473	484	
1	0	0	0	0	395	490	
2	0	0	0	0	439	489	
3	0	0	0	0	456	486	
4	0	0	0	0	484	480	
5	0	0	0	0	486	471	
6	0	0	0	0	499	459	
7	0	0	0	0	508	447	
8	0	0	0	0	517	433	
9	0	0	0	0	510	421	
10	0	0	0	0	518	411	
11	0	0	0	0	513	401	
12	0	0	0	0	534	393	
13	0	0	0	0	531	387	
14	0	0	0	0	539	382	
15	0	0	0	0	536	379	
0	0	0	0	0	555	377	
1	0	0	0	0	557	379	
2	0	0	0	0	555	381	
3	0	0	0	0	540	384	
4	0	0	0	0	531	390	
5	0	0	0	0	521	401	
6	0	0	0	0	500	417	
7	0	0	0	0	479	448	
8	0	0	0	0	476	491	
9	0	0	0	0	462	548	
10	0	0	0	0	473	618	
11	0	0	0	0	473	698	
12	0	0	0	0	474	779	
13	0	0	0	0	484	854	
14	0	0	0	0	498	915	
15	0	0	0	0	486	946	
0	0	0	0	0	483	946	
1	0	0	0	0	492	946	
2	0	0	0	0	503	946	
3	0	0	0	0	500	915	
4	0	0	0	0	501	860	
5	0	0	0	0	500	793	
6	0	0	0	0	507	718	
7	0	0	0	0	518	638	
8	0	0	0	0	519	558	
9	0	0	0	0	508	482	
10	0	0	0	0	522	411	
11	0	0	0	0	526	347	
12	0	0	0	0	505	291	
13	0	0	0	0	504	244	
14	0	0	0	0	496	207	
15	0	0	0	0	491	178	
0	0	0	0	0	495	157	
1	0	0	0	0	482	142	
2	0	0	0	0	494	132	
3	0	0	0	0	494	127	
4	0	0	0	0	496	126	
5	0	0	0	0	502	129	
6	0	0	0	0	524	137	
7	0	0	0	0	587	150	
8	0	0	0	0	690	163	
9	0	0	0	0	575	180	
10	0	0	0	0	413	197	
11	0	0	0	0	416	214	
12	0	0	0	0	460	230	
13	0	0	0	0	486	245	
14	0	0	0	0	497	259	
15	0	0	0	0	496	271	
0	0	0	0	0	508	284	
1	0	0	0	0	517	296	
2	0	0	0	0	529	309	
3	0	0	0	0	512	323	
4	0	0	0	0	528	337	
5	0	0	0	0	525	353	
6	0	0	0	0	538	367	
7	0	0	0	0	535	379	
8	0	0	0	0	539	387	
9	0	0	0	0	544	393	
10	0	0	0	0	552	396	
11	0	0	0	0	543	396	
12	0	0	0	0	551	394	
13	0	0	0	0	536	388	
14	0	0	0	0	521	383	
15	0	0	0	0	504	377	
0	0	0	0	0	497	373	
1	0	0	0	0	478	372	
2	0	0	0	0	476	378	
3	0	0	0	0	476	393	
4	0	0	0	0	474	417	
5	0	0	0	0	475	453	
6	0	0	0	0	483	492	
7	0	0	0	0	480	533	
8	0	0	0	0	489	569	
9	0	0	0	0	494	595	
10	0	0	0	0	494	608	
11	0	0	0	0	499	610	
12	0	0	0	0	499	598	
13	0	0	0	0	501	574	
14	0	0	0	0	500	540	
15	0	0	0	0	504	499	
0	0	0	0	0	509	453	
1	0	0	0	0	506	408	
2	0	0	0	0	534	362	
3	0	0	0	0	519	317	
4	0	0	0	0	532	275	
5	0	0	0	0	511	237	
6	0	0	0	0	515	204	
7	0	0	0	0	494	176	
8	0	0	0	0	494	154	
9	0	0	0	0	494	140	
10	0	0	0	0	490	134	
11	0	0	0	0	493	137	
12	0	0	0	0	490	149	
13	0	0	0	0	500	166	
14	0	0	0	0	504	187	
15	0	0	0	0	524	209	
0	0	0	0	0	595	234	
1	0	0	0	0	692	258	
2	0	0	0	0	570	283	
3	0	0	0	0	417	302	
4	0	0	0	0	426	320	
5	0	0	0	0	456	336	
6	0	0	0	0	473	348	
7	0	0	0	0	492	358	
8	0	0	0	0	499	367	
9	0	0	0	0	504	372	
10	0	0	0	0	512	375	
11	0	0	0	0	514	375	
12	0	0	0	0	519	376	
13	0	0	0	0	517	375	
14	0	0	0	0	526	374	
15	0	0	0	0	520	370	
0	0	0	0	0	533	366	
1	0	0	0	0	540	362	
2	0	0	0	0	539	359	
3	0	0	0	0	543	358	
4	0	0	0	0	548	355	
5	0	0	0	0	536	356	
6	0	0	0	0	540	357	
7	0	0	0	0	533	360	
8	0	0	0	0	509	366	
9	0	0	0	0	495	373	
10	0	0	0	0	490	384	
11	0	0	0	0	473	400	
12	0	0	0	0	467	425	
13	0	0	0	0	474	459	
14	0	0	0	0	483	498	
15	0	0	0	0	476	542	
0	0	0	0	0	483	583	
1	0	0	0	0	494	617	
2	0	0	0	0	493	640	
3	0	0	0	0	497	653	
4	0	0	0	0	490	652	
5	0	0	0	0	492	638	
6	0	0	0	0	504	613	
7	0	0	0	0	501	578	
8	0	0	0	0	502	540	
9	0	0	0	0	505	499	
10	0	0	0	0	501	458	
11	0	0	0	0	505	418	
12	0	0	0	0	492	381	
13	0	0	0	0	504	349	
14	0	0	0	0	502	324	
15	0	0	0	0	516	306	
0	0	0	0	0	522	294	
1	0	0	0	0	528	288	
2	0	0	0	0	531	285	
3	0	0	0	0	529	290	
4	0	0	0	0	524	299	
5	0	0	0	0	510	312	
6	0	0	0	0	495	329	
7	0	0	0	0	497	348	
8	0	0	0	0	493	366	
9	0	0	0	0	501	383	
10	0	0	0	0	489	398	
11	0	0	0	0	497	412	
12	0	0	0	0	497	423	
13	0	0	0	0	500	428	
14	0	0	0	0	512	431	
15	0	0	0	0	590	430	
0	0	0	0	0	702	428	
1	0	0	0	0	622	424	
2	0	0	0	0	429	422	
3	0	0	0	0	406	419	
4	0	0	0	0	441	415	
5	0	0	0	0	470	412	
6	0	0	0	0	484	409	
7	0	0	0	0	490	406	
8	0	0	0	0	489	403	
9	0	0	0	0	500	401	
10	0	0	0	0	508	399	
11	0	0	0	0	509	398	
12	0	0	0	0	520	397	
13	0	0	0	0	528	396	
14	0	0	0	0	527	396	
15	0	0	0	0	525	396	
0	0	0	0	0	532	397	
1	0	0	0	0	532	397	
2	0	0	0	0	541	397	
3	0	0	0	0	553	396	
4	0	0	0	0	543	396	
5	0	0	0	0	541	397	
6	0	0	0	0	523	401	
7	0	0	0	0	517	409	
8	0	0	0	0	502	426	
9	0	0	0	0	503	454	
10	0	0	0	0	479	493	
11	0	0	0	0	473	545	
12	0	0	0	0	480	604	
13	0	0	0	0	466	662	
14	0	0	0	0	477	709	
15	0	0	0	0	479	743	
0	0	0	0	0	483	757	
1	0	0	0	0	488	752	
2	0	0	0	0	493	730	
3	0	0	0	0	486	695	
4	0	0	0	0	493	648	
5	0	0	0	0	502	596	
6	0	0	0	0	499	542	
7	0	0	0	0	493	489	
8	0	0	0	0	497	433	
9	0	0	0	0	497	384	
10	0	0	0	0	507	342	
11	0	0	0	0	494	307	
12	0	0	0	0	495	281	
13	0	0	0	0	504	264	
14	0	0	0	0	497	254	
15	0	0	0	0	507	252	
0	0	0	0	0	506	256	
1	0	0	0	0	505	266	
2	0	0	0	0	512	281	
3	0	0	0	0	513	300	
4	0	0	0	0	530	321	
5	0	0	0	0	531	344	
6	0	0	0	0	535	366	
7	0	0	0	0	538	386	
8	0	0	0	0	512	403	
9	0	0	0	0	512	416	
10	0	0	0	0	498	426	
11	0	0	0	0	500	433	
12	0	0	0	0	494	437	
13	0	0	0	0	491	438	
14	0	0	0	0	500	438	
15	0	0	0	0	500	436	
0	0	0	0	0	498	432	
1	0	0	0	0	499	430	
2	0	0	0	0	511	427	
3	0	0	0	0	599	423	
4	0	0	0	0	718	418	
5	0	0	0	0	620	415	
6	0	0	0	0	423	412	
7	0	0	0	0	407	408	
8	0	0	0	0	437	405	
9	0	0	0	0	464	404	
10	0	0	0	0	486	403	
11	0	0	0	0	488	406	
12	0	0	0	0	496	408	
13	0	0	0	0	506	411	
14	0	0	0	0	511	415	
15	0	0	0	0	506	416	
0	0	0	0	0	510	417	
1	0	0	0	0	523	418	
2	0	0	0	0	520	420	
3	0	0	0	0	527	421	
4	0	0	0	0	540	423	
5	0	0	0	0	541	424	
6	0	0	0	0	543	425	
7	0	0	0	0	546	425	
8	0	0	0	0	543	427	
9	0	0	0	0	540	429	
10	0	0	0	0	534	434	
11	0	0	0	0	524	441	
12	0	0	0	0	501	455	
13	0	0	0	0	486	476	
14	0	0	0	0	468	510	
15	0	0	0	0	481	552	
0	0	0	0	0	470	600	
1	0	0	0	0	471	648	
2	0	0	0	0	474	689	
3	0	0	0	0	480	713	
4	0	0	0	0	481	724	
5	0	0	0	0	487	718	
6	0	0	0	0	486	697	
7	0	0	0	0	491	659	
8	0	0	0	0	486	611	
9	0	0	0	0	492	558	
10	0	0	0	0	487	502	
11	0	0	0	0	490	451	
12	0	0	0	0	501	406	
13	0	0	0	0	498	367	
14	0	0	0	0	507	334	
15	0	0	0	0	496	308	
0	0	0	0	0	499	291	
1	0	0	0	0	504	280	
2	0	0	0	0	501	276	
3	0	0	0	0	516	279	
4	0	0	0	0	515	286	
5	0	0	0	0	519	296	
6	0	0	0	0	532	308	
7	0	0	0	0	539	323	
8	0	0	0	0	528	340	
9	0	0	0	0	526	359	
10	0	0	0	0	502	376	
11	0	0	0	0	495	393	
12	0	0	0	0	493	407	
13	0	0	0	0	492	419	
14	0	0	0	0	490	429	
15	0	0	0	0	499	437	
0	0	0	0	0	497	443	
1	0	0	0	0	492	445	
2	0	0	0	0	496	445	
3	0	0	0	0	531	443	
4	0	0	0	0	623	441	
5	0	0	0	0	741	439	
6	0	0	0	0	581	438	
7	0	0	0	0	395	435	
8	0	0	0	0	419	432	
9	0	0	0	0	445	430	
10	0	0	0	0	468	427	
11	0	0	0	0	483	423	
12	0	0	0	0	491	420	
13	0	0	0	0	496	417	
14	0	0	0	0	505	415	
15	0	0	0	0	510	413	
0	0	0	0	0	512	412	
1	0	0	0	0	506	411	
2	0	0	0	0	522	412	
3	0	0	0	0	524	413	
4	0	0	0	0	534	414	
5	0	0	0	0	538	416	
6	0	0	0	0	536	419	
7	0	0	0	0	555	421	
8	0	0	0	0	552	423	
9	0	0	0	0	543	425	
10	0	0	0	0	542	427	
11	0	0	0	0	532	431	
12	0	0	0	0	509	438	
13	0	0	0	0	500	450	
14	0	0	0	0	486	471	
15	0	0	0	0	471	501	
0	0	0	0	0	464	541	
1	0	0	0	0	474	588	
2	0	0	0	0	473	636	
3	0	0	0	0	473	678	
4	0	0	0	0	482	707	
5	0	0	0	0	486	721	
6	0	0	0	0	477	719	
7	0	0	0	0	492	700	
8	0	0	0	0	481	667	
9	0	0	0	0	497	625	
10	0	0	0	0	490	578	
11	0	0	0	0	501	529	
12	0	0	0	0	496	482	
13	0	0	0	0	501	438	
14	0	0	0	0	497	397	
15	0	0	0	0	505	363	
0	0	0	0	0	492	335	
1	0	0	0	0	506	315	
2	0	0	0	0	502	301	
3	0	0	0	0	507	295	
4	0	0	0	0	511	295	
5	0	0	0	0	520	299	
6	0	0	0	0	529	307	
7	0	0	0	0	537	321	
8	0	0	0	0	531	336	
9	0	0	0	0	525	354	
10	0	0	0	0	521	374	
11	0	0	0	0	500	395	
12	0	0	0	0	497	414	
13	0	0	0	0	501	430	
14	0	0	0	0	487	443	
15	0	0	0	0	496	451	
0	0	0	0	0	493	459	
1	0	0	0	0	502	465	
2	0	0	0	0	489	467	
3	0	0	0	0	509	467	
4	0	0	0	0	581	464	
5	0	0	0	0	704	460	
6	0	0	0	0	680	455	
7	0	0	0	0	448	451	
8	0	0	0	0	392	445	
9	0	0	0	0	440	440	
10	0	0	0	0	461	434	
11	0	0	0	0	480	428	
12	0	0	0	0	478	423	
13	0	0	0	0	495	420	
14	0	0	0	0	491	419	
15	0	0	0	0	499	419	
0	0	0	0	0	514	419	
1	0	0	0	0	514	421	
2	0	0	0	0	514	421	
3	0	0	0	0	526	420	
4	0	0	0	0	524	419	
5	0	0	0	0	530	419	
6	0	0	0	0	535	419	
7	0	0	0	0	544	419	
8	0	0	0	0	541	420	
9	0	0	0	0	554	422	
10	0	0	0	0	551	425	
11	0	0	0	0	536	430	
12	0	0	0	0	522	438	
13	0	0	0	0	511	451	
14	0	0	0	0	498	470	
15	0	0	0	0	481	499	
0	0	0	0	0	460	536	
1	0	0	0	0	470	583	
2	0	0	0	0	463	630	
3	0	0	0	0	476	670	
4	0	0	0	0	476	697	
5	0	0	0	0	478	710	
6	0	0	0	0	480	707	
7	0	0	0	0	496	691	
8	0	0	0	0	487	662	
9	0	0	0	0	494	624	
10	0	0	0	0	491	580	
11	0	0	0	0	498	535	
12	0	0	0	0	487	490	
13	0	0	0	0	492	448	
14	0	0	0	0	495	410	
15	0	0	0	0	495	374	
0	0	0	0	0	507	344	
1	0	0	0	0	506	320	
2	0	0	0	0	499	305	
3	0	0	0	0	503	295	
4	0	0	0	0	495	294	
5	0	0	0	0	525	296	
6	0	0	0	0	521	304	
7	0	0	0	0	546	315	
8	0	0	0	0	545	328	
9	0	0	0	0	530	343	
10	0	0	0	0	516	362	
11	0	0	0	0	512	382	
12	0	0	0	0	498	402	
13	0	0	0	0	498	419	
14	0	0	0	0	487	437	
15	0	0	0	0	500	449	
0	0	0	0	0	486	461	
1	0	0	0	0	500	470	
2	0	0	0	0	497	473	
3	0	0	0	0	501	475	
4	0	0	0	0	547	473	
5	0	0	0	0	679	469	
6	0	0	0	0	741	464	
7	0	0	0	0	521	458	
8	0	0	0	0	380	451	
9	0	0	0	0	423	444	
10	0	0	0	0	460	434	
11	0	0	0	0	472	425	
12	0	0	0	0	472	418	
13	0	0	0	0	490	413	
14	0	0	0	0	499	409	
15	0	0	0	0	504	406	
0	0	0	0	0	505	403	
1	0	0	0	0	521	403	
2	0	0	0	0	511	403	
3	0	0	0	0	525	403	
4	0	0	0	0	517	402	
5	0	0	0	0	535	402	
6	0	0	0	0	537	403	
7	0	0	0	0	556	403	
8	0	0	0	0	546	406	
9	0	0	0	0	553	410	
10	0	0	0	0	540	415	
11	0	0	0	0	541	421	
12	0	0	0	0	529	429	
13	0	0	0	0	512	443	
14	0	0	0	0	496	462	
15	0	0	0	0	476	488	
0	0	0	0	0	471	524	
1	0	0	0	0	473	566	
2	0	0	0	0	460	611	
3	0	0	0	0	467	651	
4	0	0	0	0	475	680	
5	0	0	0	0	473	695	
6	0	0	0	0	480	695	
7	0	0	0	0	491	679	
8	0	0	0	0	484	651	
9	0	0	0	0	496	615	
10	0	0	0	0	487	573	
11	0	0	0	0	499	529	
12	0	0	0	0	492	487	
13	0	0	0	0	499	448	
14	0	0	0	0	493	414	
15	0	0	0	0	501	384	
0	0	0	0	0	502	359	
1	0	0	0	0	497	338	
2	0	0	0	0	502	324	
3	0	0	0	0	502	315	
4	0	0	0	0	516	312	
5	0	0	0	0	521	315	
6	0	0	0	0	518	321	
7	0	0	0	0	535	333	
8	0	0	0	0	540	348	
9	0	0	0	0	531	366	
10	0	0	0	0	522	385	
11	0	0	0	0	500	405	
12	0	0	0	0	496	423	
13	0	0	0	0	503	440	
14	0	0	0	0	491	455	
15	0	0	0	0	492	467	
0	0	0	0	0	500	477	
1	0	0	0	0	497	484	
2	0	0	0	0	495	489	
3	0	0	0	0	505	492	
4	0	0	0	0	553	490	
5	0	0	0	0	689	487	
6	0	0	0	0	751	481	
7	0	0	0	0	510	476	
8	0	0	0	0	365	468	
9	0	0	0	0	426	462	
10	0	0	0	0	451	455	
11	0	0	0	0	472	448	
12	0	0	0	0	480	442	
13	0	0	0	0	489	436	
14	0	0	0	0	496	431	
15	0	0	0	0	504	430	
0	0	0	0	0	502	428	
1	0	0	0	0	516	427	
2	0	0	0	0	518	427	
3	0	0	0	0	516	427	
4	0	0	0	0	525	427	
5	0	0	0	0	531	429	
6	0	0	0	0	547	431	
7	0	0	0	0	548	432	
8	0	0	0	0	547	433	
9	0	0	0	0	551	433	
10	0	0	0	0	542	435	
11	0	0	0	0	536	437	
12	0	0	0	0	519	444	
13	0	0	0	0	520	455	
14	0	0	0	0	492	472	
15	0	0	0	0	480	496	
0	0	0	0	0	471	527	
1	0	0	0	0	472	566	
2	0	0	0	0	472	606	
3	0	0	0	0	465	643	
4	0	0	0	0	469	671	
5	0	0	0	0	472	685	
6	0	0	0	0	482	683	
7	0	0	0	0	485	670	
8	0	0	0	0	483	644	
9	0	0	0	0	498	613	
10	0	0	0	0	487	575	
11	0	0	0	0	498	536	
12	0	0	0	0	495	496	
13	0	0	0	0	496	458	
14	0	0	0	0	499	423	
15	0	0	0	0	496	395	
0	0	0	0	0	499	369	
1	0	0	0	0	507	350	
2	0	0	0	0	496	337	
3	0	0	0	0	506	330	
4	0	0	0	0	516	328	
5	0	0	0	0	517	331	
6	0	0	0	0	521	339	
7	0	0	0	0	545	351	
8	0	0	0	0	531	363	
9	0	0	0	0	538	377	
10	0	0	0	0	506	394	
11	0	0	0	0	501	412	
12	0	0	0	0	492	429	
13	0	0	0	0	499	446	
14	0	0	0	0	499	459	
15	0	0	0	0	492	472	
0	0	0	0	0	487	484	
1	0	0	0	0	499	492	
2	0	0	0	0	499	496	
3	0	0	0	0	506	499	
4	0	0	0	0	597	498	
5	0	0	0	0	732	495	
6	0	0	0	0	666	491	
7	0	0	0	0	410	486	
8	0	0	0	0	385	479	
9	0	0	0	0	429	471	
10	0	0	0	0	458	464	
11	0	0	0	0	467	457	
12	0	0	0	0	486	451	
13	0	0	0	0	487	445	
14	0	0	0	0	506	441	
15	0	0	0	0	514	438	
0	0	0	0	0	504	437	
1	0	0	0	0	519	437	
2	0	0	0	0	517	436	
3	0	0	0	0	521	434	
4	0	0	0	0	525	432	
5	0	0	0	0	540	432	
6	0	0	0	0	541	432	
7	0	0	0	0	556	434	
8	0	0	0	0	547	436	
9	0	0	0	0	547	439	
10	0	0	0	0	540	442	
11	0	0	0	0	540	448	
12	0	0	0	0	519	456	
13	0	0	0	0	509	470	
14	0	0	0	0	488	489	
15	0	0	0	0	480	518	
0	0	0	0	0	471	553	
1	0	0	0	0	471	595	
2	0	0	0	0	464	636	
3	0	0	0	0	467	668	
4	0	0	0	0	472	690	
5	0	0	0	0	485	698	
6	0	0	0	0	481	691	
7	0	0	0	0	487	673	
8	0	0	0	0	489	643	
9	0	0	0	0	487	607	
10	0	0	0	0	493	568	
11	0	0	0	0	497	526	
12	0	0	0	0	495	486	
13	0	0	0	0	495	448	
14	0	0	0	0	489	415	
15	0	0	0	0	504	388	
0	0	0	0	0	489	367	
1	0	0	0	0	508	349	
2	0	0	0	0	503	337	
3	0	0	0	0	514	331	
4	0	0	0	0	513	329	
5	0	0	0	0	536	334	
6	0	0	0	0	537	341	
7	0	0	0	0	524	352	
8	0	0	0	0	526	366	
9	0	0	0	0	504	382	
10	0	0	0	0	486	398	
11	0	0	0	0	499	416	
12	0	0	0	0	486	436	
13	0	0	0	0	490	455	
14	0	0	0	0	497	471	
15	0	0	0	0	498	486	
0	0	0	0	0	503	496	
1	0	0	0	0	495	505	
2	0	0	0	0	535	509	
3	0	0	0	0	667	508	
4	0	0	0	0	789	504	
5	0	0	0	0	568	499	
6	0	0	0	0	356	491	
7	0	0	0	0	408	484	
8	0	0	0	0	444	476	
9	0	0	0	0	469	470	
10	0	0	0	0	482	464	
11	0	0	0	0	484	459	
12	0	0	0	0	492	455	
13	0	0	0	0	496	451	
14	0	0	0	0	500	447	
15	0	0	0	0	517	444	
0	0	0	0	0	511	443	
1	0	0	0	0	527	442	
2	0	0	0	0	532	444	
3	0	0	0	0	532	446	
4	0	0	0	0	537	447	
5	0	0	0	0	547	448	
6	0	0	0	0	547	448	
7	0	0	0	0	555	448	
8	0	0	0	0	545	450	
9	0	0	0	0	540	452	
10	0	0	0	0	524	458	
11	0	0	0	0	528	470	
12	0	0	0	0	493	487	
13	0	0	0	0	492	512	
14	0	0	0	0	469	543	
15	0	0	0	0	471	582	
0	0	0	0	0	464	622	
1	0	0	0	0	473	659	
2	0	0	0	0	460	685	
3	0	0	0	0	475	698	
4	0	0	0	0	485	697	
5	0	0	0	0	485	684	
6	0	0	0	0	473	658	
7	0	0	0	0	500	624	
8	0	0	0	0	487	585	
9	0	0	0	0	499	542	
10	0	0	0	0	492	498	
11	0	0	0	0	497	458	
12	0	0	0	0	487	421	
13	0	0	0	0	502	388	
14	0	0	0	0	494	361	
15	0	0	0	0	507	339	
0	0	0	0	0	510	324	
1	0	0	0	0	510	316	
2	0	0	0	0	519	313	
3	0	0	0	0	540	317	
4	0	0	0	0	536	326	
5	0	0	0	0	531	339	
6	0	0	0	0	516	355	
7	0	0	0	0	500	373	
8	0	0	0	0	495	394	
9	0	0	0	0	494	415	
10	0	0	0	0	487	435	
11	0	0	0	0	504	454	
12	0	0	0	0	487	471	
13	0	0	0	0	497	485	
14	0	0	0	0	490	497	
15	0	0	0	0	502	508	
0	0	0	0	0	536	515	
1	0	0	0	0	652	517	
2	0	0	0	0	795	515	
3	0	0	0	0	582	511	
4	0	0	0	0	363	505	
5	0	0	0	0	411	499	
6	0	0	0	0	441	493	
7	0	0	0	0	472	486	
8	0	0	0	0	470	477	
9	0	0	0	0	488	470	
10	0	0	0	0	490	461	
11	0	0	0	0	496	454	
12	0	0	0	0	504	449	
13	0	0	0	0	519	446	
14	0	0	0	0	517	445	
15	0	0	0	0	519	444	
0	0	0	0	0	519	444	
1	0	0	0	0	534	445	
2	0	0	0	0	534	445	
3	0	0	0	0	542	445	
4	0	0	0	0	544	446	
5	0	0	0	0	554	448	
6	0	0	0	0	547	451	
7	0	0	0	0	551	454	
8	0	0	0	0	529	464	
9	0	0	0	0	516	479	
10	0	0	0	0	494	500	
11	0	0	0	0	491	529	
12	0	0	0	0	472	566	
13	0	0	0	0	467	609	
14	0	0	0	0	467	652	
15	0	0	0	0	472	691	
0	0	0	0	0	465	718	
1	0	0	0	0	478	730	
2	0	0	0	0	479	727	
3	0	0	0	0	491	709	
4	0	0	0	0	487	679	
5	0	0	0	0	491	640	
6	0	0	0	0	484	596	
7	0	0	0	0	491	550	
8	0	0	0	0	490	502	
9	0	0	0	0	499	457	
10	0	0	0	0	497	419	
11	0	0	0	0	508	387	
12	0	0	0	0	492	359	
13	0	0	0	0	499	336	
14	0	0	0	0	512	321	
15	0	0	0	0	527	311	
0	0	0	0	0	524	307	
1	0	0	0	0	538	310	
2	0	0	0	0	530	318	
3	0	0	0	0	526	334	
4	0	0	0	0	502	352	
5	0	0	0	0	497	375	
6	0	0	0	0	493	398	
7	0	0	0	0	495	421	
8	0	0	0	0	489	444	
9	0	0	0	0	507	467	
10	0	0	0	0	492	484	
11	0	0	0	0	497	500	
12	0	0	0	0	495	513	
13	0	0	0	0	521	521	
14	0	0	0	0	644	524	
15	0	0	0	0	791	525	
0	0	0	0	0	608	522	
1	0	0	0	0	369	517	
2	0	0	0	0	396	511	
3	0	0	0	0	439	504	
4	0	0	0	0	463	496	
5	0	0	0	0	480	487	
6	0	0	0	0	481	479	
7	0	0	0	0	499	472	
8	0	0	0	0	495	465	
9	0	0	0	0	506	458	
10	0	0	0	0	507	452	
11	0	0	0	0	512	447	
12	0	0	0	0	521	443	
13	0	0	0	0	534	440	
14	0	0	0	0	527	439	
15	0	0	0	0	542	439	
0	0	0	0	0	540	441	
1	0	0	0	0	551	443	
2	0	0	0	0	547	445	
3	0	0	0	0	551	449	
4	0	0	0	0	534	453	
5	0	0	0	0	536	460	
6	0	0	0	0	511	471	
7	0	0	0	0	504	489	
8	0	0	0	0	487	515	
9	0	0	0	0	478	556	
10	0	0	0	0	467	601	
11	0	0	0	0	459	648	
12	0	0	0	0	462	688	
13	0	0	0	0	473	718	
14	0	0	0	0	470	732	
15	0	0	0	0	484	732	
0	0	0	0	0	483	718	
1	0	0	0	0	496	689	
2	0	0	0	0	491	654	
3	0	0	0	0	492	611	
4	0	0	0	0	488	566	
5	0	0	0	0	494	519	
6	0	0	0	0	496	476	
7	0	0	0	0	499	437	
8	0	0	0	0	499	400	
9	0	0	0	0	502	370	
10	0	0	0	0	513	344	
11	0	0	0	0	521	325	
12	0	0	0	0	519	314	
13	0	0	0	0	539	309	
14	0	0	0	0	526	310	
15	0	0	0	0	529	318	
0	0	0	0	0	506	330	
1	0	0	0	0	501	347	
2	0	0	0	0	484	368	
3	0	0	0	0	494	392	
4	0	0	0	0	488	414	
5	0	0	0	0	497	437	
6	0	0	0	0	490	459	
7	0	0	0	0	497	478	
8	0	0	0	0	497	494	
9	0	0	0	0	522	507	
10	0	0	0	0	655	518	
11	0	0	0	0	799	523	
12	0	0	0	0	591	524	
13	0	0	0	0	371	520	
14	0	0	0	0	399	515	
15	0	0	0	0	441	508	
0	0	0	0	0	459	498	
1	0	0	0	0	472	488	
2	0	0	0	0	479	479	
3	0	0	0	0	505	471	
4	0	0	0	0	490	461	
5	0	0	0	0	514	454	
6	0	0	0	0	503	449	
7	0	0	0	0	514	445	
8	0	0	0	0	521	442	
9	0	0	0	0	528	440	
10	0	0	0	0	534	438	
11	0	0	0	0	540	437	
12	0	0	0	0	550	436	
13	0	0	0	0	558	437	
14	0	0	0	0	545	439	
15	0	0	0	0	551	440	
0	0	0	0	0	540	446	
1	0	0	0	0	535	455	
2	0	0	0	0	513	470	
3	0	0	0	0	497	491	
4	0	0	0	0	488	522	
5	0	0	0	0	470	565	
6	0	0	0	0	468	613	
7	0	0	0	0	471	661	
8	0	0	0	0	472	701	
9	0	0	0	0	468	727	
10	0	0	0	0	476	739	
11	0	0	0	0	485	736	
12	0	0	0	0	480	718	
13	0	0	0	0	491	689	
14	0	0	0	0	480	651	
15	0	0	0	0	492	605	
0	0	0	0	0	498	557	
1	0	0	0	0	494	509	
2	0	0	0	0	484	461	
3	0	0	0	0	503	418	
4	0	0	0	0	499	380	
5	0	0	0	0	510	349	
6	0	0	0	0	507	326	
7	0	0	0	0	530	309	
8	0	0	0	0	525	301	
9	0	0	0	0	542	300	
10	0	0	0	0	515	306	
11	0	0	0	0	512	318	
12	0	0	0	0	495	335	
13	0	0	0	0	487	356	
14	0	0	0	0	484	379	
15	0	0	0	0	497	404	
0	0	0	0	0	491	430	
1	0	0	0	0	496	455	
2	0	0	0	0	491	477	
3	0	0	0	0	499	496	
4	0	0	0	0	495	512	
5	0	0	0	0	615	523	
6	0	0	0	0	764	529	
7	0	0	0	0	660	534	
8	0	0	0	0	384	532	
9	0	0	0	0	393	529	
10	0	0	0	0	436	524	
11	0	0	0	0	456	517	
12	0	0	0	0	471	507	
13	0	0	0	0	480	497	
14	0	0	0	0	489	486	
15	0	0	0	0	509	474	
0	0	0	0	0	500	463	
1	0	0	0	0	511	454	
2	0	0	0	0	510	446	
3	0	0	0	0	516	440	
4	0	0	0	0	526	435	
5	0	0	0	0	538	432	
6	0	0	0	0	534	430	
7	0	0	0	0	550	429	
8	0	0	0	0	548	428	
9	0	0	0	0	559	428	
10	0	0	0	0	543	431	
11	0	0	0	0	545	437	
12	0	0	0	0	536	448	
13	0	0	0	0	523	466	
14	0	0	0	0	494	492	
15	0	0	0	0	489	530	
0	0	0	0	0	466	579	
1	0	0	0	0	470	632	
2	0	0	0	0	462	684	
3	0	0	0	0	468	727	
4	0	0	0	0	471	756	
5	0	0	0	0	485	772	
6	0	0	0	0	479	772	
7	0	0	0	0	492	755	
8	0	0	0	0	479	727	
9	0	0	0	0	495	686	
10	0	0	0	0	485	638	
11	0	0	0	0	497	587	
12	0	0	0	0	492	536	
13	0	0	0	0	500	486	
14	0	0	0	0	495	439	
15	0	0	0	0	505	400	
0	0	0	0	0	506	367	
1	0	0	0	0	522	339	
2	0	0	0	0	518	318	
3	0	0	0	0	535	306	
4	0	0	0	0	524	300	
5	0	0	0	0	524	302	
6	0	0	0	0	500	310	
7	0	0	0	0	500	324	
8	0	0	0	0	486	342	
9	0	0	0	0	492	363	
10	0	0	0	0	482	387	
11	0	0	0	0	498	409	
12	0	0	0	0	487	431	
13	0	0	0	0	500	455	
14	0	0	0	0	497	476	
15	0	0	0	0	512	494	
0	0	0	0	0	622	509	
1	0	0	0	0	803	521	
2	0	0	0	0	628	529	
3	0	0	0	0	369	532	
4	0	0	0	0	392	531	
5	0	0	0	0	441	528	
6	0	0	0	0	455	521	
7	0	0	0	0	477	512	
8	0	0	0	0	483	502	
9	0	0	0	0	496	490	
10	0	0	0	0	500	478	
11	0	0	0	0	510	467	
12	0	0	0	0	505	455	
13	0	0	0	0	515	445	
14	0	0	0	0	510	435	
15	0	0	0	0	529	428	
0	0	0	0	0	535	422	
1	0	0	0	0	538	419	
2	0	0	0	0	545	418	
3	0	0	0	0	550	419	
4	0	0	0	0	550	422	
5	0	0	0	0	552	428	
6	0	0	0	0	539	436	
7	0	0	0	0	533	449	
8	0	0	0	0	521	470	
9	0	0	0	0	503	502	
10	0	0	0	0	478	547	
11	0	0	0	0	473	600	
12	0	0	0	0	464	659	
13	0	0	0	0	471	713	
14	0	0	0	0	469	757	
15	0	0	0	0	478	787	
0	0	0	0	0	466	801	
1	0	0	0	0	486	798	
2	0	0	0	0	481	780	
3	0	0	0	0	488	747	
4	0	0	0	0	481	702	
5	0	0	0	0	491	652	
6	0	0	0	0	492	598	
7	0	0	0	0	496	542	
8	0	0	0	0	489	489	
9	0	0	0	0	502	440	
10	0	0	0	0	498	396	
11	0	0	0	0	519	359	
12	0	0	0	0	517	329	
13	0	0	0	0	527	308	
14	0	0	0	0	527	296	
15	0	0	0	0	525	292	
0	0	0	0	0	512	295	
1	0	0	0	0	505	304	
2	0	0	0	0	491	322	
3	0	0	0	0	494	343	
4	0	0	0	0	484	366	
5	0	0	0	0	494	392	
6	0	0	0	0	491	418	
7	0	0	0	0	498	444	
8	0	0	0	0	483	471	
9	0	0	0	0	495	494	
10	0	0	0	0	522	513	
11	0	0	0	0	657	528	
12	0	0	0	0	806	537	
13	0	0	0	0	610	543	
14	0	0	0	0	366	544	
15	0	0	0	0	403	541	
0	0	0	0	0	432	535	
1	0	0	0	0	467	526	
2	0	0	0	0	469	515	
3	0	0	0	0	484	504	
4	0	0	0	0	486	492	
5	0	0	0	0	508	480	
6	0	0	0	0	500	469	
7	0	0	0	0	516	459	
8	0	0	0	0	514	449	
9	0	0	0	0	517	440	
10	0	0	0	0	529	433	
11	0	0	0	0	528	428	
12	0	0	0	0	536	424	
13	0	0	0	0	548	423	
14	0	0	0	0	555	423	
15	0	0	0	0	556	425	
0	0	0	0	0	546	430	
1	0	0	0	0	542	439	
2	0	0	0	0	527	454	
3	0	0	0	0	523	479	
4	0	0	0	0	498	516	
5	0	0	0	0	484	566	
6	0	0	0	0	464	627	
7	0	0	0	0	470	689	
8	0	0	0	0	467	748	
9	0	0	0	0	472	793	
10	0	0	0	0	469	824	
11	0	0	0	0	483	836	
12	0	0	0	0	476	830	
13	0	0	0	0	479	811	
14	0	0	0	0	479	774	
15	0	0	0	0	491	728	
0	0	0	0	0	488	674	
1	0	0	0	0	496	618	
2	0	0	0	0	494	560	
3	0	0	0	0	499	504	
4	0	0	0	0	492	451	
5	0	0	0	0	512	401	
6	0	0	0	0	507	360	
7	0	0	0	0	516	326	
8	0	0	0	0	519	300	
9	0	0	0	0	538	284	
10	0	0	0	0	518	279	
11	0	0	0	0	528	281	
12	0	0	0	0	497	290	
13	0	0	0	0	503	307	
14	0	0	0	0	487	329	
15	0	0	0	0	487	356	
0	0	0	0	0	489	387	
1	0	0	0	0	493	419	
2	0	0	0	0	483	447	
3	0	0	0	0	498	476	
4	0	0	0	0	495	502	
5	0	0	0	0	515	524	
6	0	0	0	0	634	540	
7	0	0	0	0	809	551	
8	0	0	0	0	623	556	
9	0	0	0	0	373	555	
10	0	0	0	0	391	551	
11	0	0	0	0	434	542	
12	0	0	0	0	456	531	
13	0	0	0	0	478	518	
14	0	0	0	0	482	504	
15	0	0	0	0	497	490	
0	0	0	0	0	495	477	
1	0	0	0	0	504	465	
2	0	0	0	0	511	453	
3	0	0	0	0	512	442	
4	0	0	0	0	518	432	
5	0	0	0	0	535	423	
6	0	0	0	0	531	418	
7	0	0	0	0	539	416	
8	0	0	0	0	546	416	
9	0	0	0	0	559	417	
10	0	0	0	0	549	419	
11	0	0	0	0	550	424	
12	0	0	0	0	532	434	
13	0	0	0	0	541	452	
14	0	0	0	0	510	482	
15	0	0	0	0	505	527	
0	0	0	0	0	483	585	
1	0	0	0	0	481	652	
2	0	0	0	0	463	722	
3	0	0	0	0	478	785	
4	0	0	0	0	462	834	
5	0	0	0	0	472	867	
6	0	0	0	0	469	881	
7	0	0	0	0	489	877	
8	0	0	0	0	483	853	
9	0	0	0	0	488	814	
10	0	0	0	0	493	764	
11	0	0	0	0	495	707	
12	0	0	0	0	495	643	
13	0	0	0	0	484	579	
14	0	0	0	0	497	515	
15	0	0	0	0	506	456	
0	0	0	0	0	494	403	
1	0	0	0	0	520	358	
2	0	0	0	0	512	318	
3	0	0	0	0	525	289	
4	0	0	0	0	531	268	
5	0	0	0	0	529	257	
6	0	0	0	0	510	256	
7	0	0	0	0	503	263	
8	0	0	0	0	483	279	
9	0	0	0	0	490	302	
10	0	0	0	0	485	329	
11	0	0	0	0	501	362	
12	0	0	0	0	495	395	
13	0	0	0	0	484	426	
14	0	0	0	0	490	458	
15	0	0	0	0	499	487	
0	0	0	0	0	536	512	
1	0	0	0	0	693	531	
2	0	0	0	0	802	545	
3	0	0	0	0	568	553	
4	0	0	0	0	361	555	
5	0	0	0	0	414	550	
6	0	0	0	0	446	541	
7	0	0	0	0	462	528	
8	0	0	0	0	467	513	
9	0	0	0	0	500	496	
10	0	0	0	0	488	478	
11	0	0	0	0	495	463	
12	0	0	0	0	503	449	
13	0	0	0	0	517	436	
14	0	0	0	0	510	424	
15	0	0	0	0	524	415	
0	0	0	0	0	524	408	
1	0	0	0	0	531	401	
2	0	0	0	0	536	399	
3	0	0	0	0	544	399	
4	0	0	0	0	555	402	
5	0	0	0	0	551	409	
6	0	0	0	0	546	418	
7	0	0	0	0	541	432	
8	0	0	0	0	525	455	
9	0	0	0	0	515	489	
10	0	0	0	0	497	539	
11	0	0	0	0	483	601	
12	0	0	0	0	465	671	
13	0	0	0	0	467	743	
14	0	0	0	0	467	808	
15	0	0	0	0	468	861	
0	0	0	0	0	465	896	
1	0	0	0	0	484	911	
2	0	0	0	0	481	904	
3	0	0	0	0	490	880	
4	0	0	0	0	472	840	
5	0	0	0	0	492	788	
6	0	0	0	0	482	728	
7	0	0	0	0	494	664	
8	0	0	0	0	487	597	
9	0	0	0	0	497	532	
10	0	0	0	0	493	470	
11	0	0	0	0	502	415	
12	0	0	0	0	499	366	
13	0	0	0	0	509	325	
14	0	0	0	0	508	294	
15	0	0	0	0	527	271	
0	0	0	0	0	536	258	
1	0	0	0	0	535	254	
2	0	0	0	0	520	260	
3	0	0	0	0	502	276	
4	0	0	0	0	484	299	
5	0	0	0	0	498	327	
6	0	0	0	0	486	358	
7	0	0	0	0	496	391	
8	0	0	0	0	490	425	
9	0	0	0	0	497	459	
10	0	0	0	0	504	487	
11	0	0	0	0	502	512	
12	0	0	0	0	515	531	
13	0	0	0	0	653	543	
14	0	0	0	0	793	550	
15	0	0	0	0	618	551	
0	0	0	0	0	364	546	
1	0	0	0	0	403	537	
2	0	0	0	0	431	526	
3	0	0	0	0	462	512	
4	0	0	0	0	472	497	
5	0	0	0	0	484	481	
6	0	0	0	0	486	466	
7	0	0	0	0	501	452	
8	0	0	0	0	506	437	
9	0	0	0	0	511	426	
10	0	0	0	0	505	417	
11	0	0	0	0	524	409	
12	0	0	0	0	520	404	
13	0	0	0	0	541	401	
14	0	0	0	0	538	399	
15	0	0	0	0	551	399	
0	0	0	0	0	543	401	
1	0	0	0	0	555	405	
2	0	0	0	0	550	414	
3	0	0	0	0	545	427	
4	0	0	0	0	531	448	
5	0	0	0	0	526	484	
6	0	0	0	0	499	536	
7	0	0	0	0	484	604	
8	0	0	0	0	475	683	
9	0	0	0	0	470	764	
10	0	0	0	0	462	836	
11	0	0	0	0	475	892	
12	0	0	0	0	469	927	
13	0	0	0	0	480	940	
14	0	0	0	0	473	934	
15	0	0	0	0	494	906	
0	0	0	0	0	481	861	
1	0	0	0	0	496	803	
2	0	0	0	0	485	737	
3	0	0	0	0	489	666	
4	0	0	0	0	492	593	
5	0	0	0	0	499	524	
6	0	0	0	0	489	458	
7	0	0	0	0	495	399	
8	0	0	0	0	488	348	
9	0	0	0	0	513	305	
10	0	0	0	0	509	274	
11	0	0	0	0	520	251	
12	0	0	0	0	518	239	
13	0	0	0	0	534	238	
14	0	0	0	0	522	246	
15	0	0	0	0	530	263	
0	0	0	0	0	496	286	
1	0	0	0	0	497	316	
2	0	0	0	0	480	350	
3	0	0	0	0	504	387	
4	0	0	0	0	491	425	
5	0	0	0	0	503	460	
6	0	0	0	0	487	491	
7	0	0	0	0	500	517	
8	0	0	0	0	491	535	
9	0	0	0	0	522	547	
10	0	0	0	0	599	553	
11	0	0	0	0	762	552	
12	0	0	0	0	646	545	
13	0	0	0	0	417	535	
14	0	0	0	0	393	521	
15	0	0	0	0	428	504	
0	0	0	0	0	448	486	
1	0	0	0	0	476	470	
2	0	0	0	0	475	454	
3	0	0	0	0	498	441	
4	0	0	0	0	501	431	
5	0	0	0	0	502	422	
6	0	0	0	0	502	416	
7	0	0	0	0	513	412	
8	0	0	0	0	519	406	
9	0	0	0	0	529	400	
10	0	0	0	0	531	396	
11	0	0	0	0	536	393	
12	0	0	0	0	543	391	
13	0	0	0	0	555	391	
14	0	0	0	0	549	394	
15	0	0	0	0	553	399	
0	0	0	0	0	542	410	
1	0	0	0	0	541	428	
2	0	0	0	0	513	456	
3	0	0	0	0	507	502	
4	0	0	0	0	482	564	
5	0	0	0	0	472	642	
6	0	0	0	0	466	724	
7	0	0	0	0	474	803	
8	0	0	0	0	465	868	
9	0	0	0	0	473	918	
10	0	0	0	0	465	941	
11	0	0	0	0	484	944	
12	0	0	0	0	476	928	
13	0	0	0	0	487	890	
14	0	0	0	0	485	837	
15	0	0	0	0	494	773	
0	0	0	0	0	481	702	
1	0	0	0	0	489	631	
2	0	0	0	0	492	558	
3	0	0	0	0	496	488	
4	0	0	0	0	495	424	
5	0	0	0	0	504	368	
6	0	0	0	0	503	319	
7	0	0	0	0	510	279	
8	0	0	0	0	509	250	
9	0	0	0	0	537	231	
10	0	0	0	0	523	224	
11	0	0	0	0	531	227	
12	0	0	0	0	517	239	
13	0	0	0	0	502	259	
14	0	0	0	0	484	287	
15	0	0	0	0	494	319	
0	0	0	0	0	489	357	
1	0	0	0	0	494	396	
2	0	0	0	0	489	432	
3	0	0	0	0	503	466	
4	0	0	0	0	504	495	
5	0	0	0	0	517	518	
6	0	0	0	0	547	532	
7	0	0	0	0	689	540	
8	0	0	0	0	753	541	
9	0	0	0	0	536	538	
10	0	0	0	0	374	530	
11	0	0	0	0	425	519	
12	0	0	0	0	440	504	
13	0	0	0	0	467	489	
14	0	0	0	0	473	473	
15	0	0	0	0	496	458	
0	0	0	0	0	494	445	
1	0	0	0	0	508	433	
2	0	0	0	0	500	422	
3	0	0	0	0	513	412	
4	0	0	0	0	514	406	
5	0	0	0	0	522	401	
6	0	0	0	0	524	398	
7	0	0	0	0	540	398	
8	0	0	0	0	533	399	
9	0	0	0	0	557	401	
10	0	0	0	0	555	405	
11	0	0	0	0	552	410	
12	0	0	0	0	543	416	
13	0	0	0	0	554	428	
14	0	0	0	0	521	448	
15	0	0	0	0	516	483	
0	0	0	0	0	487	535	
1	0	0	0	0	481	604	
2	0	0	0	0	456	685	
3	0	0	0	0	472	768	
4	0	0	0	0	464	844	
5	0	0	0	0	476	906	
6	0	0	0	0	471	942	
7	0	0	0	0	476	945	
8	0	0	0	0	468	945	
9	0	0	0	0	482	934	
10	0	0	0	0	480	890	
11	0	0	0	0	493	833	
12	0	0	0	0	486	765	
13	0	0	0	0	487	692	
14	0	0	0	0	485	615	
15	0	0	0	0	492	542	
0	0	0	0	0	486	473	
1	0	0	0	0	503	411	
2	0	0	0	0	497	355	
3	0	0	0	0	510	308	
4	0	0	0	0	513	271	
5	0	0	0	0	524	244	
6	0	0	0	0	524	227	
7	0	0	0	0	531	220	
8	0	0	0	0	510	223	
9	0	0	0	0	501	234	
10	0	0	0	0	487	255	
11	0	0	0	0	505	283	
12	0	0	0	0	496	315	
13	0	0	0	0	495	350	
14	0	0	0	0	489	387	
15	0	0	0	0	500	424	
0	0	0	0	0	491	457	
1	0	0	0	0	516	486	
2	0	0	0	0	523	509	
3	0	0	0	0	634	526	
4	0	0	0	0	761	535	
5	0	0	0	0	606	540	
6	0	0	0	0	388	537	
7	0	0	0	0	406	530	
8	0	0	0	0	438	519	
9	0	0	0	0	462	507	
10	0	0	0	0	464	491	
11	0	0	0	0	495	475	
12	0	0	0	0	487	460	
13	0	0	0	0	504	447	
14	0	0	0	0	505	433	
15	0	0	0	0	518	420	
0	0	0	0	0	499	411	
1	0	0	0	0	523	401	
2	0	0	0	0	527	395	
3	0	0	0	0	533	392	
4	0	0	0	0	537	391	
5	0	0	0	0	545	391	
6	0	0	0	0	544	392	
7	0	0	0	0	557	396	
8	0	0	0	0	549	401	
9	0	0	0	0	549	412	
10	0	0	0	0	532	430	
11	0	0	0	0	528	461	
12	0	0	0	0	481	509	
13	0	0	0	0	484	576	
14	0	0	0	0	475	658	
15	0	0	0	0	467	747	
0	0	0	0	0	457	832	
1	0	0	0	0	474	902	
2	0	0	0	0	467	944	
3	0	0	0	0	484	945	
4	0	0	0	0	472	945	
5	0	0	0	0	489	945	
6	0	0	0	0	480	920	
7	0	0	0	0	487	866	
8	0	0	0	0	486	798	
9	0	0	0	0	496	723	
10	0	0	0	0	482	646	
11	0	0	0	0	502	568	
12	0	0	0	0	491	494	
13	0	0	0	0	499	429	
14	0	0	0	0	496	369	
15	0	0	0	0	512	319	
0	0	0	0	0	501	278	
1	0	0	0	0	527	248	
2	0	0	0	0	524	227	
3	0	0	0	0	538	218	
4	0	0	0	0	518	217	
5	0	0	0	0	518	228	
6	0	0	0	0	494	246	
7	0	0	0	0	496	271	
8	0	0	0	0	494	301	
9	0	0	0	0	500	335	
10	0	0	0	0	495	371	
11	0	0	0	0	507	407	
12	0	0	0	0	487	440	
13	0	0	0	0	502	472	
14	0	0	0	0	494	496	
15	0	0	0	0	578	516	
0	0	0	0	0	689	530	
1	0	0	0	0	713	536	
2	0	0	0	0	494	539	
3	0	0	0	0	399	534	
4	0	0	0	0	422	526	
5	0	0	0	0	446	513	
6	0	0	0	0	463	500	
7	0	0	0	0	486	486	
8	0	0	0	0	479	470	
9	0	0	0	0	506	456	
10	0	0	0	0	495	443	
11	0	0	0	0	508	430	
12	0	0	0	0	504	419	
13	0	0	0	0	519	411	
14	0	0	0	0	514	403	
15	0	0	0	0	532	398	
0	0	0	0	0	521	395	
1	0	0	0	0	547	394	
2	0	0	0	0	541	395	
3	0	0	0	0	563	398	
4	0	0	0	0	548	405	
5	0	0	0	0	554	414	
6	0	0	0	0	536	429	
7	0	0	0	0	531	454	
8	0	0	0	0	496	492	
9	0	0	0	0	493	549	
10	0	0	0	0	474	627	
11	0	0	0	0	482	716	
12	0	0	0	0	465	807	
13	0	0	0	0	472	889	
14	0	0	0	0	459	944	
15	0	0	0	0	476	945	
0	0	0	0	0	480	945	
1	0	0	0	0	494	945	
2	0	0	0	0	476	945	
3	0	0	0	0	489	931	
4	0	0	0	0	483	872	
5	0	0	0	0	498	803	
6	0	0	0	0	481	725	
7	0	0	0	0	506	646	
8	0	0	0	0	490	567	
9	0	0	0	0	493	492	
10	0	0	0	0	493	423	
11	0	0	0	0	493	363	
12	0	0	0	0	499	312	
13	0	0	0	0	512	272	
14	0	0	0	0	511	243	
15	0	0	0	0	534	225	
0	0	0	0	0	523	216	
1	0	0	0	0	526	217	
2	0	0	0	0	517	227	
3	0	0	0	0	506	246	
4	0	0	0	0	479	274	
5	0	0	0	0	510	307	
6	0	0	0	0	491	343	
7	0	0	0	0	506	380	
8	0	0	0	0	487	415	
9	0	0	0	0	498	450	
10	0	0	0	0	495	478	
11	0	0	0	0	508	502	
12	0	0	0	0	532	521	
13	0	0	0	0	643	531	
14	0	0	0	0	748	533	
15	0	0	0	0	598	530	
0	0	0	0	0	384	523	
1	0	0	0	0	418	512	
2	0	0	0	0	437	498	
3	0	0	0	0	465	482	
4	0	0	0	0	471	467	
5	0	0	0	0	497	452	
6	0	0	0	0	492	437	
7	0	0	0	0	507	426	
8	0	0	0	0	499	414	
9	0	0	0	0	517	406	
10	0	0	0	0	503	399	
11	0	0	0	0	525	394	
12	0	0	0	0	516	391	
13	0	0	0	0	541	390	
14	0	0	0	0	527	390	
15	0	0	0	0	551	391	
0	0	0	0	0	545	393	
1	0	0	0	0	555	397	
2	0	0	0	0	547	402	
3	0	0	0	0	550	413	
4	0	0	0	0	530	433	
5	0	0	0	0	522	467	
6	0	0	0	0	494	519	
7	0	0	0	0	489	592	
8	0	0	0	0	469	679	
9	0	0	0	0	469	772	
10	0	0	0	0	464	859	
11	0	0	0	0	477	929	
12	0	0	0	0	471	945	
13	0	0	0	0	490	945	
14	0	0	0	0	472	945	
15	0	0	0	0	492	945	
0	0	0	0	0	483	945	
1	0	0	0	0	497	897	
2	0	0	0	0	481	830	
3	0	0	0	0	492	754	
4	0	0	0	0	491	674	
5	0	0	0	0	490	595	
6	0	0	0	0	486	517	
7	0	0	0	0	510	444	
8	0	0	0	0	486	379	
9	0	0	0	0	503	324	
10	0	0	0	0	494	279	
11	0	0	0	0	510	245	
12	0	0	0	0	501	221	
13	0	0	0	0	518	209	
14	0	0	0	0	524	204	
15	0	0	0	0	541	211	
0	0	0	0	0	512	225	
1	0	0	0	0	529	249	
2	0	0	0	0	500	278	
3	0	0	0	0	503	313	
4	0	0	0	0	493	350	
5	0	0	0	0	501	388	
6	0	0	0	0	486	425	
7	0	0	0	0	507	458	
8	0	0	0	0	491	487	
9	0	0	0	0	515	509	
10	0	0	0	0	499	524	
11	0	0	0	0	562	532	
12	0	0	0	0	639	534	
13	0	0	0	0	749	529	
14	0	0	0	0	553	520	
15	0	0	0	0	396	508	
0	0	0	0	0	413	492	
1	0	0	0	0	451	478	
2	0	0	0	0	466	459	
3	0	0	0	0	483	443	
4	0	0	0	0	479	427	
5	0	0	0	0	501	412	
6	0	0	0	0	494	401	
7	0	0	0	0	523	392	
8	0	0	0	0	498	386	
9	0	0	0	0	521	382	
10	0	0	0	0	516	379	
11	0	0	0	0	531	377	
12	0	0	0	0	515	377	
13	0	0	0	0	548	381	
14	0	0	0	0	525	386	
15	0	0	0	0	560	394	
0	0	0	0	0	548	401	
1	0	0	0	0	551	410	
2	0	0	0	0	540	424	
3	0	0	0	0	533	444	
4	0	0	0	0	502	478	
5	0	0	0	0	499	531	
6	0	0	0	0	475	604	
7	0	0	0	0	475	693	
8	0	0	0	0	466	785	
9	0	0	0	0	484	872	
10	0	0	0	0	467	939	
11	0	0	0	0	483	945	
12	0	0	0	0	467	945	
13	0	0	0	0	493	945	
14	0	0	0	0	473	945	
15	0	0	0	0	499	945	
0	0	0	0	0	484	888	
1	0	0	0	0	496	813	
2	0	0	0	0	486	732	
3	0	0	0	0	492	647	
4	0	0	0	0	487	564	
5	0	0	0	0	501	485	
6	0	0	0	0	487	413	
7	0	0	0	0	507	351	
8	0	0	0	0	496	296	
9	0	0	0	0	497	253	
10	0	0	0	0	496	221	
11	0	0	0	0	503	201	
12	0	0	0	0	501	191	
13	0	0	0	0	525	190	
14	0	0	0	0	527	199	
15	0	0	0	0	547	216	
0	0	0	0	0	521	241	
1	0	0	0	0	529	272	
2	0	0	0	0	498	307	
3	0	0	0	0	506	344	
4	0	0	0	0	485	382	
5	0	0	0	0	506	417	
6	0	0	0	0	492	449	
7	0	0	0	0	509	476	
8	0	0	0	0	493	497	
9	0	0	0	0	499	512	
10	0	0	0	0	492	520	
11	0	0	0	0	550	522	
12	0	0	0	0	614	520	
13	0	0	0	0	736	513	
14	0	0	0	0	589	503	
15	0	0	0	0	403	489	
0	0	0	0	0	414	476	
1	0	0	0	0	451	461	
2	0	0	0	0	463	446	
3	0	0	0	0	483	433	
4	0	0	0	0	480	420	
5	0	0	0	0	509	410	
6	0	0	0	0	489	402	
7	0	0	0	0	515	396	
8	0	0	0	0	497	393	
9	0	0	0	0	521	391	
10	0	0	0	0	518	391	
11	0	0	0	0	527	395	
12	0	0	0	0	516	398	
13	0	0	0	0	539	401	
14	0	0	0	0	536	407	
15	0	0	0	0	547	412	
0	0	0	0	0	536	419	
1	0	0	0	0	551	425	
2	0	0	0	0	536	434	
3	0	0	0	0	537	449	
4	0	0	0	0	503	473	
5	0	0	0	0	506	513	
6	0	0	0	0	479	571	
7	0	0	0	0	474	648	
8	0	0	0	0	465	734	
9	0	0	0	0	474	818	
10	0	0	0	0	467	891	
11	0	0	0	0	494	941	
12	0	0	0	0	478	945	
13	0	0	0	0	491	945	
14	0	0	0	0	476	945	
15	0	0	0	0	494	929	
0	0	0	0	0	479	873	
1	0	0	0	0	497	802	
2	0	0	0	0	487	723	
3	0	0	0	0	496	640	
4	0	0	0	0	487	556	
5	0	0	0	0	497	476	
6	0	0	0	0	495	405	
7	0	0	0	0	497	342	
8	0	0	0	0	491	291	
9	0	0	0	0	506	249	
10	0	0	0	0	493	220	
11	0	0	0	0	506	202	
12	0	0	0	0	493	195	
13	0	0	0	0	502	199	
14	0	0	0	0	503	210	
15	0	0	0	0	522	228	
0	0	0	0	0	525	253	
1	0	0	0	0	543	283	
2	0	0	0	0	532	315	
3	0	0	0	0	527	350	
4	0	0	0	0	499	385	
5	0	0	0	0	505	419	
6	0	0	0	0	486	449	
7	0	0	0	0	508	476	
8	0	0	0	0	486	496	
9	0	0	0	0	505	512	
10	0	0	0	0	487	521	
11	0	0	0	0	505	524	
12	0	0	0	0	493	521	
13	0	0	0	0	525	515	
14	0	0	0	0	586	504	
15	0	0	0	0	715	492	
0	0	0	0	0	618	478	
1	0	0	0	0	427	463	
2	0	0	0	0	392	449	
3	0	0	0	0	448	435	
4	0	0	0	0	456	426	
5	0	0	0	0	476	418	
6	0	0	0	0	483	412	
7	0	0	0	0	493	409	
8	0	0	0	0	499	407	
9	0	0	0	0	510	407	
10	0	0	0	0	495	408	
11	0	0	0	0	521	413	
12	0	0	0	0	507	418	
13	0	0	0	0	526	424	
14	0	0	0	0	517	428	
15	0	0	0	0	537	432	
0	0	0	0	0	527	438	
1	0	0	0	0	550	444	
2	0	0	0	0	539	449	
3	0	0	0	0	550	454	
4	0	0	0	0	533	461	
5	0	0	0	0	530	468	
6	0	0	0	0	508	479	
7	0	0	0	0	512	496	
8	0	0	0	0	486	522	
9	0	0	0	0	486	561	
10	0	0	0	0	468	614	
11	0	0	0	0	482	674	
12	0	0	0	0	472	735	
13	0	0	0	0	480	790	
14	0	0	0	0	475	828	
15	0	0	0	0	487	845	
0	0	0	0	0	477	842	
1	0	0	0	0	499	818	
2	0	0	0	0	482	775	
3	0	0	0	0	493	717	
4	0	0	0	0	484	653	
5	0	0	0	0	505	584	
6	0	0	0	0	484	514	
7	0	0	0	0	505	447	
8	0	0	0	0	488	386	
9	0	0	0	0	509	334	
10	0	0	0	0	492	289	
11	0	0	0	0	507	255	
12	0	0	0	0	486	234	
13	0	0	0	0	516	223	
14	0	0	0	0	493	222	
15	0	0	0	0	513	229	
0	0	0	0	0	509	243	
1	0	0	0	0	522	262	
2	0	0	0	0	516	286	
3	0	0	0	0	545	312	
4	0	0	0	0	526	340	
5	0	0	0	0	536	368	
6	0	0	0	0	517	396	
7	0	0	0	0	514	423	
8	0	0	0	0	496	446	
9	0	0	0	0	502	466	
10	0	0	0	0	495	481	
11	0	0	0	0	508	492	
12	0	0	0	0	489	497	
13	0	0	0	0	507	499	
14	0	0	0	0	486	497	
15	0	0	0	0	503	492	
0	0	0	0	0	531	486	
1	0	0	0	0	631	479	
2	0	0	0	0	722	472	
3	0	0	0	0	587	464	
4	0	0	0	0	383	457	
5	0	0	0	0	422	451	
6	0	0	0	0	440	444	
7	0	0	0	0	475	438	
8	0	0	0	0	468	434	
9	0	0	0	0	495	431	
10	0	0	0	0	496	428	
11	0	0	0	0	513	429	
12	0	0	0	0	501	430	
13	0	0	0	0	518	431	
14	0	0	0	0	504	432	
15	0	0	0	0	531	434	
0	0	0	0	0	516	435	
1	0	0	0	0	527	439	
2	0	0	0	0	527	442	
3	0	0	0	0	542	445	
4	0	0	0	0	541	447	
5	0	0	0	0	558	448	
6	0	0	0	0	527	450	
7	0	0	0	0	548	452	
8	0	0	0	0	514	457	
9	0	0	0	0	520	465	
10	0	0	0	0	500	479	
11	0	0	0	0	494	504	
12	0	0	0	0	466	539	
13	0	0	0	0	475	587	
14	0	0	0	0	468	643	
15	0	0	0	0	491	702	
0	0	0	0	0	464	754	
1	0	0	0	0	483	795	
2	0	0	0	0	467	817	
3	0	0	0	0	503	819	
4	0	0	0	0	483	800	
5	0	0	0	0	497	767	
6	0	0	0	0	478	717	
7	0	0	0	0	504	659	
8	0	0	0	0	487	595	
9	0	0	0	0	502	529	
10	0	0	0	0	494	463	
11	0	0	0	0	497	404	
12	0	0	0	0	489	353	
13	0	0	0	0	502	311	
14	0	0	0	0	499	278	
15	0	0	0	0	505	255	
0	0	0	0	0	495	243	
1	0	0	0	0	508	241	
2	0	0	0	0	491	247	
3	0	0	0	0	512	260	
4	0	0	0	0	503	279	
5	0	0	0	0	529	301	
6	0	0	0	0	521	327	
7	0	0	0	0	544	354	
8	0	0	0	0	531	381	
9	0	0	0	0	540	408	
10	0	0	0	0	502	434	
11	0	0	0	0	502	457	
12	0	0	0	0	492	477	
13	0	0	0	0	502	493	
14	0	0	0	0	482	505	
15	0	0	0	0	502	512	
0	0	0	0	0	492	516	
1	0	0	0	0	516	516	
2	0	0	0	0	492	512	
3	0	0	0	0	527	507	
4	0	0	0	0	595	499	
5	0	0	0	0	734	489	
6	0	0	0	0	581	481	
7	0	0	0	0	399	473	
8	0	0	0	0	397	465	
9	0	0	0	0	449	456	
10	0	0	0	0	452	449	
11	0	0	0	0	492	442	
12	0	0	0	0	479	438	
13	0	0	0	0	501	435	
14	0	0	0	0	499	434	
15	0	0	0	0	512	433	
0	0	0	0	0	502	432	
1	0	0	0	0	519	432	
2	0	0	0	0	524	434	
3	0	0	0	0	532	437	
4	0	0	0	0	514	443	
5	0	0	0	0	544	447	
6	0	0	0	0	527	451	
7	0	0	0	0	548	455	
8	0	0	0	0	542	459	
9	0	0	0	0	545	462	
10	0	0	0	0	535	467	
11	0	0	0	0	536	472	
12	0	0	0	0	517	480	
13	0	0	0	0	507	493	
14	0	0	0	0	479	512	
15	0	0	0	0	485	542	
0	0	0	0	0	468	583	
1	0	0	0	0	477	633	
2	0	0	0	0	472	688	
3	0	0	0	0	485	739	
4	0	0	0	0	464	784	
5	0	0	0	0	490	813	
6	0	0	0	0	482	824	
7	0	0	0	0	494	817	
8	0	0	0	0	484	792	
9	0	0	0	0	497	752	
10	0	0	0	0	486	700	
11	0	0	0	0	497	639	
12	0	0	0	0	486	572	
13	0	0	0	0	500	508	
14	0	0	0	0	487	446	
15	0	0	0	0	505	389	
0	0	0	0	0	484	341	
1	0	0	0	0	506	304	
2	0	0	0	0	493	278	
3	0	0	0	0	511	264	
4	0	0	0	0	492	259	
5	0	0	0	0	528	263	
6	0	0	0	0	504	275	
7	0	0	0	0	535	292	
8	0	0	0	0	527	312	
9	0	0	0	0	539	335	
10	0	0	0	0	514	360	
11	0	0	0	0	501	385	
12	0	0	0	0	494	412	
13	0	0	0	0	506	438	
14	0	0	0	0	484	459	
15	0	0	0	0	498	476	
0	0	0	0	0	492	491	
1	0	0	0	0	503	502	
2	0	0	0	0	484	510	
3	0	0	0	0	504	513	
4	0	0	0	0	534	514	
5	0	0	0	0	654	514	
6	0	0	0	0	735	510	
7	0	0	0	0	562	505	
8	0	0	0	0	368	499	
9	0	0	0	0	413	493	
10	0	0	0	0	448	486	
11	0	0	0	0	474	479	
12	0	0	0	0	480	472	
13	0	0	0	0	504	464	
14	0	0	0	0	485	459	
15	0	0	0	0	514	455	
0	0	0	0	0	499	453	
1	0	0	0	0	521	450	
2	0	0	0	0	509	448	
3	0	0	0	0	530	448	
4	0	0	0	0	518	449	
5	0	0	0	0	537	451	
6	0	0	0	0	528	452	
7	0	0	0	0	543	455	
8	0	0	0	0	540	457	
9	0	0	0	0	553	460	
10	0	0	0	0	535	463	
11	0	0	0	0	542	464	
12	0	0	0	0	523	468	
13	0	0	0	0	525	476	
14	0	0	0	0	495	487	
15	0	0	0	0	489	507	
0	0	0	0	0	467	538	
1	0	0	0	0	473	580	
2	0	0	0	0	464	633	
3	0	0	0	0	481	693	
4	0	0	0	0	471	749	
5	0	0	0	0	484	798	
6	0	0	0	0	469	831	
7	0	0	0	0	500	846	
8	0	0	0	0	483	839	
9	0	0	0	0	495	813	
10	0	0	0	0	486	771	
11	0	0	0	0	496	719	
12	0	0	0	0	488	659	
13	0	0	0	0	504	592	
14	0	0	0	0	489	526	
15	0	0	0	0	497	462	
0	0	0	0	0	488	402	
1	0	0	0	0	508	351	
2	0	0	0	0	494	309	
3	0	0	0	0	520	277	
4	0	0	0	0	508	256	
5	0	0	0	0	536	247	
6	0	0	0	0	515	246	
7	0	0	0	0	534	255	
8	0	0	0	0	509	271	
9	0	0	0	0	507	291	
10	0	0	0	0	490	317	
11	0	0	0	0	496	343	
12	0	0	0	0	482	371	
13	0	0	0	0	497	399	
14	0	0	0	0	491	425	
15	0	0	0	0	506	448	
0	0	0	0	0	497	468	
1	0	0	0	0	518	486	
2	0	0	0	0	581	499	
3	0	0	0	0	707	509	
4	0	0	0	0	647	516	
5	0	0	0	0	441	520	
6	0	0	0	0	385	519	
7	0	0	0	0	453	516	
8	0	0	0	0	457	511	
9	0	0	0	0	483	504	
10	0	0	0	0	479	496	
11	0	0	0	0	498	488	
12	0	0	0	0	493	478	
13	0	0	0	0	516	469	
14	0	0	0	0	504	461	
15	0	0	0	0	519	455	
0	0	0	0	0	511	450	
1	0	0	0	0	534	446	
2	0	0	0	0	520	441	
3	0	0	0	0	540	441	
4	0	0	0	0	528	442	
5	0	0	0	0	543	445	
6	0	0	0	0	541	446	
7	0	0	0	0	557	448	
8	0	0	0	0	539	452	
9	0	0	0	0	536	456	
10	0	0	0	0	511	463	
11	0	0	0	0	513	475	
12	0	0	0	0	487	495	
13	0	0	0	0	475	526	
14	0	0	0	0	465	567	
15	0	0	0	0	480	618	
0	0	0	0	0	464	676	
1	0	0	0	0	483	734	
2	0	0	0	0	464	787	
3	0	0	0	0	490	826	
4	0	0	0	0	484	847	
5	0	0	0	0	491	849	
6	0	0	0	0	484	831	
7	0	0	0	0	499	796	
8	0	0	0	0	485	747	
9	0	0	0	0	499	687	
10	0	0	0	0	491	621	
11	0	0	0	0	494	553	
12	0	0	0	0	491	487	
13	0	0	0	0	506	425	
14	0	0	0	0	492	369	
15	0	0	0	0	518	323	
0	0	0	0	0	515	288	
1	0	0	0	0	534	263	
2	0	0	0	0	517	247	
3	0	0	0	0	527	241	
4	0	0	0	0	500	245	
5	0	0	0	0	499	257	
6	0	0	0	0	485	276	
7	0	0	0	0	495	300	
8	0	0	0	0	487	326	
9	0	0	0	0	495	355	
10	0	0	0	0	498	385	
11	0	0	0	0	503	415	
12	0	0	0	0	492	443	
13	0	0	0	0	519	467	
14	0	0	0	0	607	488	
15	0	0	0	0	748	504	
0	0	0	0	0	587	517	
1	0	0	0	0	399	526	
2	0	0	0	0	392	528	
3	0	0	0	0	449	527	
4	0	0	0	0	460	522	
5	0	0	0	0	487	515	
6	0	0	0	0	486	507	
7	0	0	0	0	499	496	
8	0	0	0	0	497	486	
9	0	0	0	0	516	476	
10	0	0	0	0	497	465	
11	0	0	0	0	520	457	
12	0	0	0	0	515	449	
13	0	0	0	0	527	444	
14	0	0	0	0	530	440	
15	0	0	0	0	541	438	
0	0	0	0	0	523	437	
1	0	0	0	0	557	435	
2	0	0	0	0	545	435	
3	0	0	0	0	552	436	
4	0	0	0	0	539	439	
5	0	0	0	0	536	446	
6	0	0	0	0	513	455	
7	0	0	0	0	510	475	
8	0	0	0	0	485	505	
9	0	0	0	0	480	548	
10	0	0	0	0	460	601	
11	0	0	0	0	476	661	
12	0	0	0	0	465	723	
13	0	0	0	0	484	781	
14	0	0	0	0	472	826	
15	0	0	0	0	490	855	
0	0	0	0	0	481	864	
1	0	0	0	0	495	853	
2	0	0	0	0	487	825	
3	0	0	0	0	492	780	
4	0	0	0	0	491	723	
5	0	0	0	0	494	658	
6	0	0	0	0	491	591	
7	0	0	0	0	497	522	
8	0	0	0	0	496	456	
9	0	0	0	0	511	398	
10	0	0	0	0	506	347	
11	0	0	0	0	535	304	
12	0	0	0	0	531	273	
13	0	0	0	0	522	253	
14	0	0	0	0	508	241	
15	0	0	0	0	502	240	
0	0	0	0	0	480	248	
1	0	0	0	0	500	262	
2	0	0	0	0	484	282	
3	0	0	0	0	487	308	
4	0	0	0	0	493	335	
5	0	0	0	0	501	365	
6	0	0	0	0	489	395	
7	0	0	0	0	503	425	
8	0	0	0	0	534	452	
9	0	0	0	0	653	475	
10	0	0	0	0	757	494	
11	0	0	0	0	555	507	
12	0	0	0	0	376	517	
13	0	0	0	0	428	521	
14	0	0	0	0	451	523	
15	0	0	0	0	472	519	
0	0	0	0	0	470	513	
1	0	0	0	0	492	505	
2	0	0	0	0	493	497	
3	0	0	0	0	507	489	
4	0	0	0	0	503	480	
5	0	0	0	0	512	472	
6	0	0	0	0	512	462	
7	0	0	0	0	525	455	
8	0	0	0	0	524	447	
9	0	0	0	0	544	443	
10	0	0	0	0	521	440	
11	0	0	0	0	550	438	
12	0	0	0	0	548	436	
13	0	0	0	0	555	437	
14	0	0	0	0	540	438	
15	0	0	0	0	544	442	
0	0	0	0	0	516	450	
1	0	0	0	0	522	464	
2	0	0	0	0	493	489	
3	0	0	0	0	486	525	
4	0	0	0	0	468	571	
5	0	0	0	0	470	628	
6	0	0	0	0	461	690	
7	0	0	0	0	480	750	
8	0	0	0	0	469	802	
9	0	0	0	0	492	839	
10	0	0	0	0	475	856	
11	0	0	0	0	502	852	
12	0	0	0	0	484	829	
13	0	0	0	0	498	788	
14	0	0	0	0	485	736	
15	0	0	0	0	504	674	
0	0	0	0	0	487	607	
1	0	0	0	0	497	540	
2	0	0	0	0	493	476	
3	0	0	0	0	509	415	
4	0	0	0	0	506	363	
5	0	0	0	0	529	318	
6	0	0	0	0	521	284	
7	0	0	0	0	535	259	
8	0	0	0	0	513	246	
9	0	0	0	0	509	240	
10	0	0	0	0	487	245	
11	0	0	0	0	495	260	
12	0	0	0	0	482	280	
13	0	0	0	0	497	306	
14	0	0	0	0	482	335	
15	0	0	0	0	499	364	
0	0	0	0	0	486	393	
1	0	0	0	0	505	423	
2	0	0	0	0	515	450	
3	0	0	0	0	625	473	
4	0	0	0	0	754	491	
5	0	0	0	0	590	504	
6	0	0	0	0	375	514	
7	0	0	0	0	418	519	
8	0	0	0	0	444	521	
9	0	0	0	0	476	518	
10	0	0	0	0	473	512	
11	0	0	0	0	500	505	
12	0	0	0	0	491	497	
13	0	0	0	0	502	487	
14	0	0	0	0	499	479	
15	0	0	0	0	517	470	
0	0	0	0	0	505	461	
1	0	0	0	0	524	455	
2	0	0	0	0	512	449	
3	0	0	0	0	545	443	
4	0	0	0	0	527	439	
5	0	0	0	0	552	437	
6	0	0	0	0	546	435	
7	0	0	0	0	561	435	
8	0	0	0	0	539	436	
9	0	0	0	0	544	439	
10	0	0	0	0	524	446	
11	0	0	0	0	519	464	
12	0	0	0	0	498	491	
13	0	0	0	0	494	527	
14	0	0	0	0	465	576	
15	0	0	0	0	476	636	
0	0	0	0	0	463	699	
1	0	0	0	0	470	760	
2	0	0	0	0	473	811	
3	0	0	0	0	489	847	
4	0	0	0	0	472	863	
5	0	0	0	0	497	859	
6	0	0	0	0	480	835	
7	0	0	0	0	496	793	
8	0	0	0	0	487	741	
9	0	0	0	0	493	678	
10	0	0	0	0	485	611	
11	0	0	0	0	497	542	
12	0	0	0	0	497	476	
13	0	0	0	0	511	414	
14	0	0	0	0	509	360	
15	0	0	0	0	521	316	
0	0	0	0	0	529	282	
1	0	0	0	0	532	256	
2	0	0	0	0	499	243	
3	0	0	0	0	506	238	
4	0	0	0	0	485	243	
5	0	0	0	0	487	257	
6	0	0	0	0	489	279	
7	0	0	0	0	497	305	
8	0	0	0	0	480	335	
9	0	0	0	0	499	366	
10	0	0	0	0	491	397	
11	0	0	0	0	503	427	
12	0	0	0	0	535	455	
13	0	0	0	0	683	480	
14	0	0	0	0	744	498	
15	0	0	0	0	522	512	
0	0	0	0	0	374	520	
1	0	0	0	0	433	524	
2	0	0	0	0	448	523	
3	0	0	0	0	479	519	
4	0	0	0	0	480	511	
5	0	0	0	0	492	502	
6	0	0	0	0	493	493	
7	0	0	0	0	513	483	
8	0	0	0	0	506	473	
9	0	0	0	0	519	463	
10	0	0	0	0	515	453	
11	0	0	0	0	525	444	
12	0	0	0	0	527	437	
13	0	0	0	0	535	432	
14	0	0	0	0	529	428	
15	0	0	0	0	556	428	
0	0	0	0	0	543	426	
1	0	0	0	0	555	428	
2	0	0	0	0	539	431	
3	0	0	0	0	541	438	
4	0	0	0	0	516	448	
5	0	0	0	0	520	468	
6	0	0	0	0	489	498	
7	0	0	0	0	481	537	
8	0	0	0	0	466	587	
9	0	0	0	0	473	644	
10	0	0	0	0	464	701	
11	0	0	0	0	475	753	
12	0	0	0	0	468	796	
13	0	0	0	0	486	820	
14	0	0	0	0	483	825	
15	0	0	0	0	492	811	
0	0	0	0	0	487	781	
1	0	0	0	0	501	736	
2	0	0	0	0	479	682	
3	0	0	0	0	494	622	
4	0	0	0	0	490	559	
5	0	0	0	0	503	498	
6	0	0	0	0	492	441	
7	0	0	0	0	516	389	
8	0	0	0	0	510	347	
9	0	0	0	0	526	314	
10	0	0	0	0	520	288	
11	0	0	0	0	529	273	
12	0	0	0	0	499	266	
13	0	0	0	0	511	267	
14	0	0	0	0	486	277	
15	0	0	0	0	486	293	
0	0	0	0	0	485	314	
1	0	0	0	0	489	340	
2	0	0	0	0	486	369	
3	0	0	0	0	494	397	
4	0	0	0	0	495	423	
5	0	0	0	0	504	448	
6	0	0	0	0	575	470	
7	0	0	0	0	731	489	
8	0	0	0	0	662	501	
9	0	0	0	0	429	511	
10	0	0	0	0	392	516	
11	0	0	0	0	435	516	
12	0	0	0	0	456	514	
13	0	0	0	0	481	508	
14	0	0	0	0	477	501	
15	0	0	0	0	506	493	
0	0	0	0	0	496	485	
1	0	0	0	0	510	477	
2	0	0	0	0	495	468	
3	0	0	0	0	529	459	
4	0	0	0	0	508	451	
5	0	0	0	0	532	444	
6	0	0	0	0	519	436	
7	0	0	0	0	538	432	
8	0	0	0	0	532	429	
9	0	0	0	0	556	428	
10	0	0	0	0	537	428	
11	0	0	0	0	550	431	
12	0	0	0	0	534	437	
13	0	0	0	0	541	446	
14	0	0	0	0	513	462	
15	0	0	0	0	508	488	
0	0	0	0	0	483	525	
1	0	0	0	0	483	570	
2	0	0	0	0	467	624	
3	0	0	0	0	476	682	
4	0	0	0	0	460	740	
5	0	0	0	0	480	788	
6	0	0	0	0	474	820	
7	0	0	0	0	481	838	
8	0	0	0	0	476	833	
9	0	0	0	0	487	812	
10	0	0	0	0	488	775	
11	0	0	0	0	505	724	
12	0	0	0	0	479	667	
13	0	0	0	0	501	605	
14	0	0	0	0	481	543	
15	0	0	0	0	500	482	
0	0	0	0	0	503	426	
1	0	0	0	0	526	376	
2	0	0	0	0	510	335	
3	0	0	0	0	526	304	
4	0	0	0	0	525	282	
5	0	0	0	0	519	270	
6	0	0	0	0	493	269	
7	0	0	0	0	497	275	
8	0	0	0	0	482	287	
9	0	0	0	0	494	304	
10	0	0	0	0	487	327	
11	0	0	0	0	497	356	
12	0	0	0	0	482	384	
13	0	0	0	0	501	411	
14	0	0	0	0	503	438	
15	0	0	0	0	522	460	
0	0	0	0	0	631	481	
1	0	0	0	0	783	497	
2	0	0	0	0	582	510	
3	0	0	0	0	372	519	
4	0	0	0	0	403	523	
5	0	0	0	0	458	524	
6	0	0	0	0	462	521	
7	0	0	0	0	483	517	
8	0	0	0	0	481	512	
9	0	0	0	0	499	505	
10	0	0	0	0	498	496	
11	0	0	0	0	515	487	
12	0	0	0	0	500	477	
13	0	0	0	0	518	468	
14	0	0	0	0	521	461	
15	0	0	0	0	537	455	
0	0	0	0	0	527	450	
1	0	0	0	0	540	445	
2	0	0	0	0	537	443	
3	0	0	0	0	554	440	
4	0	0	0	0	542	441	
5	0	0	0	0	545	443	
6	0	0	0	0	534	447	
7	0	0	0	0	535	455	
8	0	0	0	0	509	471	
9	0	0	0	0	507	499	
10	0	0	0	0	482	535	
11	0	0	0	0	473	579	
12	0	0	0	0	465	628	
13	0	0	0	0	473	680	
14	0	0	0	0	467	728	
15	0	0	0	0	487	767	
0	0	0	0	0	468	790	
1	0	0	0	0	488	797	
2	0	0	0	0	481	784	
3	0	0	0	0	491	757	
4	0	0	0	0	484	716	
5	0	0	0	0	502	667	
6	0	0	0	0	483	611	
7	0	0	0	0	503	554	
8	0	0	0	0	487	497	
9	0	0	0	0	512	444	
10	0	0	0	0	494	394	
11	0	0	0	0	521	352	
12	0	0	0	0	518	319	
13	0	0	0	0	534	296	
14	0	0	0	0	515	283	
15	0	0	0	0	519	278	
0	0	0	0	0	491	281	
1	0	0	0	0	498	291	
2	0	0	0	0	484	306	
3	0	0	0	0	486	326	
4	0	0	0	0	489	351	
5	0	0	0	0	498	378	
6	0	0	0	0	499	403	
7	0	0	0	0	499	428	
8	0	0	0	0	487	452	
9	0	0	0	0	551	474	
10	0	0	0	0	675	492	
11	0	0	0	0	783	507	
12	0	0	0	0	527	517	
13	0	0	0	0	386	521	
14	0	0	0	0	414	523	
15	0	0	0	0	454	521	
0	0	0	0	0	462	514	
1	0	0	0	0	485	507	
2	0	0	0	0	480	496	
3	0	0	0	0	505	486	
4	0	0	0	0	494	476	
5	0	0	0	0	511	465	
6	0	0	0	0	511	454	
7	0	0	0	0	521	446	
8	0	0	0	0	512	439	
9	0	0	0	0	533	433	
10	0	0	0	0	537	430	
11	0	0	0	0	539	427	
12	0	0	0	0	541	427	
13	0	0	0	0	555	429	
14	0	0	0	0	547	432	
15	0	0	0	0	544	438	
0	0	0	0	0	525	448	
1	0	0	0	0	537	463	
2	0	0	0	0	507	489	
3	0	0	0	0	496	524	
4	0	0	0	0	471	567	
5	0	0	0	0	476	618	
6	0	0	0	0	462	673	
7	0	0	0	0	484	728	
8	0	0	0	0	464	774	
9	0	0	0	0	478	808	
10	0	0	0	0	471	824	
11	0	0	0	0	490	821	
12	0	0	0	0	482	800	
13	0	0	0	0	498	764	
14	0	0	0	0	478	716	
15	0	0	0	0	499	660	
0	0	0	0	0	486	600	
1	0	0	0	0	500	541	
2	0	0	0	0	491	484	
3	0	0	0	0	506	430	
4	0	0	0	0	498	383	
5	0	0	0	0	520	343	
6	0	0	0	0	524	311	
7	0	0	0	0	535	289	
8	0	0	0	0	524	276	
9	0	0	0	0	515	272	
10	0	0	0	0	493	276	
11	0	0	0	0	494	288	
12	0	0	0	0	483	305	
13	0	0	0	0	488	327	
14	0	0	0	0	480	353	
15	0	0	0	0	496	380	
0	0	0	0	0	487	408	
1	0	0	0	0	500	433	
2	0	0	0	0	486	456	
3	0	0	0	0	576	475	
4	0	0	0	0	726	490	
5	0	0	0	0	717	503	
6	0	0	0	0	430	512	
7	0	0	0	0	392	516	
8	0	0	0	0	418	515	
9	0	0	0	0	455	512	
10	0	0	0	0	468	505	
11	0	0	0	0	487	499	
12	0	0	0	0	487	492	
13	0	0	0	0	502	481	
14	0	0	0	0	498	472	
15	0	0	0	0	516	463	
0	0	0	0	0	507	453	
1	0	0	0	0	527	446	
2	0	0	0	0	519	440	
3	0	0	0	0	539	433	
4	0	0	0	0	524	428	
5	0	0	0	0	546	426	
6	0	0	0	0	544	424	
7	0	0	0	0	555	425	
8	0	0	0	0	540	428	
9	0	0	0	0	545	435	
10	0	0	0	0	536	446	
11	0	0	0	0	532	466	
12	0	0	0	0	501	495	
13	0	0	0	0	502	534	
14	0	0	0	0	469	583	
15	0	0	0	0	478	639	
0	0	0	0	0	455	696	
1	0	0	0	0	470	748	
2	0	0	0	0	461	792	
3	0	0	0	0	481	820	
4	0	0	0	0	473	829	
5	0	0	0	0	491	820	
6	0	0	0	0	484	796	
7	0	0	0	0	489	757	
8	0	0	0	0	481	706	
9	0	0	0	0	497	649	
10	0	0	0	0	489	589	
11	0	0	0	0	503	529	
12	0	0	0	0	495	471	
13	0	0	0	0	509	417	
14	0	0	0	0	504	370	
15	0	0	0	0	525	331	
0	0	0	0	0	523	301	
1	0	0	0	0	536	282	
2	0	0	0	0	519	272	
3	0	0	0	0	515	270	
4	0	0	0	0	489	278	
5	0	0	0	0	499	291	
6	0	0	0	0	482	311	
7	0	0	0	0	492	334	
8	0	0	0	0	484	360	
9	0	0	0	0	493	389	
10	0	0	0	0	489	419	
11	0	0	0	0	505	447	
12	0	0	0	0	491	470	
13	0	0	0	0	588	488	
14	0	0	0	0	740	502	
15	0	0	0	0	701	511	
0	0	0	0	0	409	519	
1	0	0	0	0	390	521	
2	0	0	0	0	422	520	
3	0	0	0	0	461	516	
4	0	0	0	0	467	511	
5	0	0	0	0	484	501	
6	0	0	0	0	483	493	
7	0	0	0	0	500	483	
8	0	0	0	0	498	473	
9	0	0	0	0	514	464	
10	0	0	0	0	505	456	
11	0	0	0	0	523	449	
12	0	0	0	0	517	443	
13	0	0	0	0	538	439	
14	0	0	0	0	531	435	
15	0	0	0	0	553	434	
0	0	0	0	0	544	434	
1	0	0	0	0	557	435	
2	0	0	0	0	537	438	
3	0	0	0	0	553	444	
4	0	0	0	0	529	455	
5	0	0	0	0	530	474	
6	0	0	0	0	504	503	
7	0	0	0	0	497	542	
8	0	0	0	0	474	589	
9	0	0	0	0	475	644	
10	0	0	0	0	455	701	
11	0	0	0	0	473	752	
12	0	0	0	0	464	792	
13	0	0	0	0	488	815	
14	0	0	0	0	472	820	
15	0	0	0	0	488	809	
0	0	0	0	0	481	781	
1	0	0	0	0	500	739	
2	0	0	0	0	486	689	
3	0	0	0	0	494	633	
4	0	0	0	0	488	574	
5	0	0	0	0	497	514	
6	0	0	0	0	488	457	
7	0	0	0	0	501	405	
8	0	0	0	0	504	359	
9	0	0	0	0	526	323	
10	0	0	0	0	524	295	
11	0	0	0	0	536	277	
12	0	0	0	0	515	269	
13	0	0	0	0	529	271	
14	0	0	0	0	481	280	
15	0	0	0	0	497	295	
0	0	0	0	0	478	318	
1	0	0	0	0	491	343	
2	0	0	0	0	487	370	
3	0	0	0	0	493	399	
4	0	0	0	0	481	426	
5	0	0	0	0	505	451	
6	0	0	0	0	495	472	
7	0	0	0	0	569	491	
8	0	0	0	0	725	503	
9	0	0	0	0	732	511	
10	0	0	0	0	464	516	
11	0	0	0	0	378	516	
12	0	0	0	0	412	512	
13	0	0	0	0	458	508	
14	0	0	0	0	460	502	
15	0	0	0	0	483	494	
0	0	0	0	0	487	487	
1	0	0	0	0	504	479	
2	0	0	0	0	495	470	
3	0	0	0	0	519	462	
4	0	0	0	0	520	454	
5	0	0	0	0	512	446	
6	0	0	0	0	513	441	
7	0	0	0	0	538	436	
8	0	0	0	0	528	434	
9	0	0	0	0	548	432	
10	0	0	0	0	542	431	
11	0	0	0	0	550	432	
12	0	0	0	0	550	432	
13	0	0	0	0	556	438	
14	0	0	0	0	527	451	
15	0	0	0	0	535	472	
0	0	0	0	0	497	502	
1	0	0	0	0	505	543	
2	0	0	0	0	467	592	
3	0	0	0	0	473	648	
4	0	0	0	0	461	707	
5	0	0	0	0	473	762	
6	0	0	0	0	469	805	
7	0	0	0	0	477	832	
8	0	0	0	0	477	843	
9	0	0	0	0	489	834	
10	0	0	0	0	478	808	
11	0	0	0	0	488	769	
12	0	0	0	0	483	717	
13	0	0	0	0	501	659	
14	0	0	0	0	479	598	
15	0	0	0	0	502	536	
0	0	0	0	0	492	477	
1	0	0	0	0	508	424	
2	0	0	0	0	495	377	
3	0	0	0	0	519	338	
4	0	0	0	0	519	309	
5	0	0	0	0	540	289	
6	0	0	0	0	515	279	
7	0	0	0	0	523	276	
8	0	0	0	0	487	281	
9	0	0	0	0	495	294	
10	0	0	0	0	484	310	
11	0	0	0	0	492	333	
12	0	0	0	0	485	359	
13	0	0	0	0	501	385	
14	0	0	0	0	486	412	
15	0	0	0	0	498	440	
0	0	0	0	0	493	465	
1	0	0	0	0	545	484	
2	0	0	0	0	694	500	
3	0	0	0	0	803	511	
4	0	0	0	0	525	519	
5	0	0	0	0	367	524	
6	0	0	0	0	415	525	
7	0	0	0	0	449	521	
8	0	0	0	0	460	514	
9	0	0	0	0	488	505	
10	0	0	0	0	472	495	
11	0	0	0	0	504	483	
12	0	0	0	0	500	473	
13	0	0	0	0	508	463	
14	0	0	0	0	507	454	
15	0	0	0	0	525	447	
0	0	0	0	0	510	440	
1	0	0	0	0	539	435	
2	0	0	0	0	528	431	
3	0	0	0	0	549	430	
4	0	0	0	0	543	430	
5	0	0	0	0	557	433	
6	0	0	0	0	541	437	
7	0	0	0	0	552	444	
8	0	0	0	0	535	454	
9	0	0	0	0	529	473	
10	0	0	0	0	513	503	
11	0	0	0	0	500	540	
12	0	0	0	0	480	587	
13	0	0	0	0	474	641	
14	0	0	0	0	455	698	
15	0	0	0	0	478	749	
0	0	0	0	0	458	794	
1	0	0	0	0	473	823	
2	0	0	0	0	475	833	
3	0	0	0	0	495	825	
4	0	0	0	0	475	800	
5	0	0	0	0	494	762	
6	0	0	0	0	481	712	
7	0	0	0	0	486	654	
8	0	0	0	0	483	592	
9	0	0	0	0	500	531	
10	0	0	0	0	484	472	
11	0	0	0	0	504	418	
12	0	0	0	0	505	372	
13	0	0	0	0	518	333	
14	0	0	0	0	508	303	
15	0	0	0	0	537	281	
0	0	0	0	0	523	268	
1	0	0	0	0	526	265	
2	0	0	0	0	508	271	
3	0	0	0	0	496	284	
4	0	0	0	0	484	300	
5	0	0	0	0	492	323	
6	0	0	0	0	481	348	
7	0	0	0	0	507	377	
8	0	0	0	0	482	406	
9	0	0	0	0	502	434	
10	0	0	0	0	483	460	
11	0	0	0	0	512	483	
12	0	0	0	0	608	499	
13	0	0	0	0	785	513	
14	0	0	0	0	632	520	
15	0	0	0	0	389	523	
0	0	0	0	0	395	523	
1	0	0	0	0	434	520	
2	0	0	0	0	449	514	
3	0	0	0	0	476	505	
4	0	0	0	0	472	494	
5	0	0	0	0	501	482	
6	0	0	0	0	489	471	
7	0	0	0	0	509	461	
8	0	0	0	0	502	452	
9	0	0	0	0	524	445	
10	0	0	0	0	517	439	
11	0	0	0	0	532	433	
12	0	0	0	0	523	430	
13	0	0	0	0	535	429	
14	0	0	0	0	542	428	
15	0	0	0	0	558	429	
0	0	0	0	0	540	430	
1	0	0	0	0	551	433	
2	0	0	0	0	543	440	
3	0	0	0	0	541	454	
4	0	0	0	0	514	479	
5	0	0	0	0	509	515	
6	0	0	0	0	483	560	
7	0	0	0	0	483	615	
8	0	0	0	0	459	678	
9	0	0	0	0	475	738	
10	0	0	0	0	462	792	
11	0	0	0	0	478	831	
12	0	0	0	0	476	853	
13	0	0	0	0	491	855	
14	0	0	0	0	471	837	
15	0	0	0	0	495	802	
0	0	0	0	0	485	755	
1	0	0	0	0	494	698	
2	0	0	0	0	479	634	
3	0	0	0	0	499	569	
4	0	0	0	0	479	507	
5	0	0	0	0	502	448	
6	0	0	0	0	487	396	
7	0	0	0	0	510	352	
8	0	0	0	0	514	316	
9	0	0	0	0	527	290	
10	0	0	0	0	528	272	
11	0	0	0	0	527	264	
12	0	0	0	0	516	264	
13	0	0	0	0	511	274	
14	0	0	0	0	486	291	
15	0	0	0	0	496	314	
0	0	0	0	0	483	341	
1	0	0	0	0	496	369	
2	0	0	0	0	491	397	
3	0	0	0	0	505	427	
4	0	0	0	0	491	452	
5	0	0	0	0	497	475	
6	0	0	0	0	500	494	
7	0	0	0	0	634	510	
8	0	0	0	0	772	520	
9	0	0	0	0	622	526	
10	0	0	0	0	370	527	
11	0	0	0	0	401	524	
12	0	0	0	0	423	519	
13	0	0	0	0	467	512	
14	0	0	0	0	467	503	
15	0	0	0	0	496	492	
0	0	0	0	0	489	481	
1	0	0	0	0	504	470	
2	0	0	0	0	498	460	
3	0	0	0	0	516	451	
4	0	0	0	0	503	443	
5	0	0	0	0	527	437	
6	0	0	0	0	519	434	
7	0	0	0	0	537	432	
8	0	0	0	0	532	431	
9	0	0	0	0	554	432	
10	0	0	0	0	537	432	
11	0	0	0	0	558	434	
12	0	0	0	0	550	438	
13	0	0	0	0	545	443	
14	0	0	0	0	534	455	
15	0	0	0	0	521	477	
0	0	0	0	0	492	508	
1	0	0	0	0	496	550	
2	0	0	0	0	463	599	
3	0	0	0	0	476	654	
4	0	0	0	0	455	708	
5	0	0	0	0	472	757	
6	0	0	0	0	464	793	
7	0	0	0	0	480	812	
8	0	0	0	0	469	813	
9	0	0	0	0	492	796	
10	0	0	0	0	477	762	
11	0	0	0	0	494	716	
12	0	0	0	0	472	661	
13	0	0	0	0	492	604	
14	0	0	0	0	486	543	
15	0	0	0	0	504	485	
0	0	0	0	0	483	432	
1	0	0	0	0	510	387	
2	0	0	0	0	497	348	
3	0	0	0	0	512	318	
4	0	0	0	0	512	298	
5	0	0	0	0	536	286	
6	0	0	0	0	516	280	
7	0	0	0	0	530	285	
8	0	0	0	0	512	295	
9	0	0	0	0	511	312	
10	0	0	0	0	490	332	
11	0	0	0	0	492	356	
12	0	0	0	0	489	384	
13	0	0	0	0	498	409	
14	0	0	0	0	486	436	
15	0	0	0	0	507	462	
0	0	0	0	0	488	482	
1	0	0	0	0	510	499	
2	0	0	0	0	581	512	
3	0	0	0	0	740	520	
4	0	0	0	0	657	524	
5	0	0	0	0	430	523	
6	0	0	0	0	396	520	
7	0	0	0	0	426	513	
8	0	0	0	0	448	506	
9	0	0	0	0	478	498	
10	0	0	0	0	477	489	
11	0	0	0	0	500	480	
12	0	0	0	0	492	470	
13	0	0	0	0	504	461	
14	0	0	0	0	503	453	
15	0	0	0	0	523	446	
0	0	0	0	0	519	440	
1	0	0	0	0	538	436	
2	0	0	0	0	535	433	
3	0	0	0	0	543	432	
4	0	0	0	0	533	434	
5	0	0	0	0	552	435	
6	0	0	0	0	545	437	
7	0	0	0	0	556	440	
8	0	0	0	0	544	446	
9	0	0	0	0	543	455	
10	0	0	0	0	521	470	
11	0	0	0	0	497	496	
12	0	0	0	0	480	533	
13	0	0	0	0	480	579	
14	0	0	0	0	462	635	
15	0	0	0	0	472	692	
0	0	0	0	0	450	745	
1	0	0	0	0	476	789	
2	0	0	0	0	475	819	
3	0	0	0	0	484	833	
4	0	0	0	0	480	828	
5	0	0	0	0	484	805	
6	0	0	0	0	482	767	
7	0	0	0	0	487	717	
8	0	0	0	0	488	661	
9	0	0	0	0	499	600	
10	0	0	0	0	483	540	
11	0	0	0	0	510	482	
12	0	0	0	0	486	429	
13	0	0	0	0	515	383	
14	0	0	0	0	507	343	
15	0	0	0	0	532	313	
0	0	0	0	0	519	292	
1	0	0	0	0	522	282	
2	0	0	0	0	507	281	
3	0	0	0	0	506	287	
4	0	0	0	0	485	300	
5	0	0	0	0	491	318	
6	0	0	0	0	481	342	
7	0	0	0	0	491	367	
8	0	0	0	0	495	396	
9	0	0	0	0	496	423	
10	0	0	0	0	488	448	
11	0	0	0	0	520	469	
12	0	0	0	0	582	487	
13	0	0	0	0	731	502	
14	0	0	0	0	647	513	
15	0	0	0	0	441	521	
0	0	0	0	0	384	522	
1	0	0	0	0	436	522	
2	0	0	0	0	456	517	
3	0	0	0	0	480	509	
4	0	0	0	0	481	500	
5	0	0	0	0	501	488	
6	0	0	0	0	496	478	
7	0	0	0	0	512	467	
8	0	0	0	0	510	457	
9	0	0	0	0	519	448	
10	0	0	0	0	515	441	
11	0	0	0	0	530	436	
12	0	0	0	0	520	432	
13	0	0	0	0	545	430	
14	0	0	0	0	535	430	
15	0	0	0	0	559	432	
0	0	0	0	0	554	434	
1	0	0	0	0	560	438	
2	0	0	0	0	545	445	
3	0	0	0	0	542	455	
4	0	0	0	0	514	467	
5	0	0	0	0	515	488	
6	0	0	0	0	476	522	
7	0	0	0	0	472	564	
8	0	0	0	0	457	614	
9	0	0	0	0	468	668	
10	0	0	0	0	457	719	
11	0	0	0	0	474	765	
12	0	0	0	0	464	799	
13	0	0	0	0	483	816	
14	0	0	0	0	483	817	
15	0	0	0	0	489	801	
0	0	0	0	0	487	770	
1	0	0	0	0	493	728	
2	0	0	0	0	487	677	
3	0	0	0	0	498	621	
4	0	0	0	0	486	562	
5	0	0	0	0	515	503	
6	0	0	0	0	497	449	
7	0	0	0	0	515	401	
8	0	0	0	0	507	360	
9	0	0	0	0	527	328	
10	0	0	0	0	514	305	
11	0	0	0	0	517	291	
12	0	0	0	0	486	285	
13	0	0	0	0	496	287	
14	0	0	0	0	485	296	
15	0	0	0	0	495	315	
0	0	0	0	0	484	339	
1	0	0	0	0	503	367	
2	0	0	0	0	494	399	
3	0	0	0	0	503	430	
4	0	0	0	0	497	462	
5	0	0	0	0	583	489	
6	0	0	0	0	704	511	
7	0	0	0	0	659	528	
8	0	0	0	0	449	541	
9	0	0	0	0	406	550	
10	0	0	0	0	428	553	
11	0	0	0	0	466	552	
12	0	0	0	0	464	547	
13	0	0	0	0	491	539	
14	0	0	0	0	488	527	
15	0	0	0	0	511	510	
0	0	0	0	0	497	495	
1	0	0	0	0	518	478	
2	0	0	0	0	511	463	
3	0	0	0	0	522	451	
4	0	0	0	0	516	441	
5	0	0	0	0	543	432	
6	0	0	0	0	534	427	
7	0	0	0	0	556	423	
8	0	0	0	0	547	420	
9	0	0	0	0	560	419	
10	0	0	0	0	538	422	
11	0	0	0	0	557	427	
12	0	0	0	0	530	437	
13	0	0	0	0	521	456	
14	0	0	0	0	495	486	
15	0	0	0	0	488	527	
0	0	0	0	0	467	582	
1	0	0	0	0	476	650	
2	0	0	0	0	453	725	
3	0	0	0	0	472	800	
4	0	0	0	0	472	865	
5	0	0	0	0	494	915	
6	0	0	0	0	468	940	
7	0	0	0	0	488	944	
8	0	0	0	0	485	926	
9	0	0	0	0	499	884	
10	0	0	0	0	481	827	
11	0	0	0	0	495	758	
12	0	0	0	0	482	682	
13	0	0	0	0	500	603	
14	0	0	0	0	492	526	
15	0	0	0	0	509	452	
0	0	0	0	0	513	385	
1	0	0	0	0	538	327	
2	0	0	0	0	517	279	
3	0	0	0	0	516	243	
4	0	0	0	0	491	219	
5	0	0	0	0	493	206	
6	0	0	0	0	483	204	
7	0	0	0	0	492	212	
8	0	0	0	0	482	230	
9	0	0	0	0	497	255	
10	0	0	0	0	487	285	
11	0	0	0	0	503	319	
12	0	0	0	0	491	355	
13	0	0	0	0	523	390	
14	0	0	0	0	615	425	
15	0	0	0	0	739	456	
0	0	0	0	0	588	483	
1	0	0	0	0	404	505	
2	0	0	0	0	418	520	
3	0	0	0	0	451	531	
4	0	0	0	0	461	535	
5	0	0	0	0	486	536	
6	0	0	0	0	493	530	
7	0	0	0	0	496	521	
8	0	0	0	0	483	508	
9	0	0	0	0	513	493	
10	0	0	0	0	502	480	
11	0	0	0	0	522	466	
12	0	0	0	0	519	451	
13	0	0	0	0	531	439	
14	0	0	0	0	519	428	
15	0	0	0	0	541	421	
0	0	0	0	0	537	414	
1	0	0	0	0	557	410	
2	0	0	0	0	544	409	
3	0	0	0	0	560	411	
4	0	0	0	0	536	419	
5	0	0	0	0	541	432	
6	0	0	0	0	501	454	
7	0	0	0	0	499	489	
8	0	0	0	0	476	537	
9	0	0	0	0	479	600	
10	0	0	0	0	459	673	
11	0	0	0	0	484	749	
12	0	0	0	0	463	821	
13	0	0	0	0	477	881	
14	0	0	0	0	479	924	
15	0	0	0	0	488	943	
0	0	0	0	0	483	943	
1	0	0	0	0	494	919	
2	0	0	0	0	486	875	
3	0	0	0	0	494	815	
4	0	0	0	0	478	745	
5	0	0	0	0	500	670	
6	0	0	0	0	485	591	
7	0	0	0	0	505	515	
8	0	0	0	0	499	444	
9	0	0	0	0	525	381	
10	0	0	0	0	521	326	
11	0	0	0	0	526	281	
12	0	0	0	0	503	248	
13	0	0	0	0	508	225	
14	0	0	0	0	494	214	
15	0	0	0	0	498	212	
0	0	0	0	0	481	219	
1	0	0	0	0	488	238	
2	0	0	0	0	487	264	
3	0	0	0	0	493	292	
4	0	0	0	0	491	324	
5	0	0	0	0	504	359	
6	0	0	0	0	512	394	
7	0	0	0	0	606	428	
8	0	0	0	0	720	457	
9	0	0	0	0	613	482	
10	0	0	0	0	407	503	
11	0	0	0	0	415	516	
12	0	0	0	0	440	525	
13	0	0	0	0	474	529	
14	0	0	0	0	466	527	
15	0	0	0	0	496	520	
0	0	0	0	0	493	513	
1	0	0	0	0	510	504	
2	0	0	0	0	491	493	
3	0	0	0	0	512	481	
4	0	0	0	0	511	468	
5	0	0	0	0	528	458	
6	0	0	0	0	519	448	
7	0	0	0	0	539	440	
8	0	0	0	0	524	430	
9	0	0	0	0	543	422	
10	0	0	0	0	536	416	
11	0	0	0	0	558	415	
12	0	0	0	0	542	417	
13	0	0	0	0	549	425	
14	0	0	0	0	526	440	
15	0	0	0	0	521	466	
0	0	0	0	0	492	505	
1	0	0	0	0	493	564	
2	0	0	0	0	462	641	
3	0	0	0	0	476	727	
4	0	0	0	0	465	815	
5	0	0	0	0	480	896	
6	0	0	0	0	475	945	
7	0	0	0	0	490	945	
8	0	0	0	0	473	945	
9	0	0	0	0	493	945	
10	0	0	0	0	480	945	
11	0	0	0	0	494	944	
12	0	0	0	0	481	889	
13	0	0	0	0	498	814	
14	0	0	0	0	485	734	
15	0	0	0	0	504	650	
0	0	0	0	0	499	563	
1	0	0	0	0	519	481	
2	0	0	0	0	508	404	
3	0	0	0	0	529	337	
4	0	0	0	0	510	283	
5	0	0	0	0	518	240	
6	0	0	0	0	490	208	
7	0	0	0	0	494	188	
8	0	0	0	0	483	181	
9	0	0	0	0	496	184	
10	0	0	0	0	477	199	
11	0	0	0	0	501	222	
12	0	0	0	0	485	252	
13	0	0	0	0	503	287	
14	0	0	0	0	491	324	
15	0	0	0	0	519	361	
0	0	0	0	0	585	398	
1	0	0	0	0	728	431	
2	0	0	0	0	609	460	
3	0	0	0	0	425	485	
4	0	0	0	0	400	503	
5	0	0	0	0	452	513	
6	0	0	0	0	460	519	
7	0	0	0	0	491	519	
8	0	0	0	0	482	513	
9	0	0	0	0	503	506	
10	0	0	0	0	500	495	
11	0	0	0	0	502	482	
12	0	0	0	0	504	468	
13	0	0	0	0	531	455	
14	0	0	0	0	515	441	
15	0	0	0	0	532	430	
0	0	0	0	0	523	419	
1	0	0	0	0	536	411	
2	0	0	0	0	535	405	
3	0	0	0	0	540	399	
4	0	0	0	0	540	396	
5	0	0	0	0	548	398	
6	0	0	0	0	545	404	
7	0	0	0	0	540	419	
8	0	0	0	0	508	446	
9	0	0	0	0	506	487	
10	0	0	0	0	484	547	
11	0	0	0	0	480	622	
12	0	0	0	0	465	710	
13	0	0	0	0	472	800	
14	0	0	0	0	465	884	
15	0	0	0	0	493	943	
0	0	0	0	0	478	945	
1	0	0	0	0	489	944	
2	0	0	0	0	479	945	
3	0	0	0	0	496	945	
4	0	0	0	0	483	944	
5	0	0	0	0	502	879	
6	0	0	0	0	482	804	
7	0	0	0	0	500	723	
8	0	0	0	0	486	638	
9	0	0	0	0	511	554	
10	0	0	0	0	498	475	
11	0	0	0	0	510	403	
12	0	0	0	0	512	339	
13	0	0	0	0	531	287	
14	0	0	0	0	512	246	
15	0	0	0	0	521	216	
0	0	0	0	0	491	199	
1	0	0	0	0	495	193	
2	0	0	0	0	476	199	
3	0	0	0	0	497	215	
4	0	0	0	0	487	240	
5	0	0	0	0	499	270	
6	0	0	0	0	484	305	
7	0	0	0	0	494	344	
8	0	0	0	0	497	382	
9	0	0	0	0	547	419	
10	0	0	0	0	639	451	
11	0	0	0	0	769	478	
12	0	0	0	0	555	496	
13	0	0	0	0	393	509	
14	0	0	0	0	413	513	
15	0	0	0	0	460	509	
0	0	0	0	0	461	499	
1	0	0	0	0	492	485	
2	0	0	0	0	476	468	
3	0	0	0	0	509	452	
4	0	0	0	0	493	434	
5	0	0	0	0	511	418	
6	0	0	0	0	501	403	
7	0	0	0	0	518	390	
8	0	0	0	0	507	380	
9	0	0	0	0	533	374	
10	0	0	0	0	522	371	
11	0	0	0	0	535	369	
12	0	0	0	0	535	368	
13	0	0	0	0	555	370	
14	0	0	0	0	541	376	
15	0	0	0	0	552	386	
0	0	0	0	0	531	401	
1	0	0	0	0	529	423	
2	0	0	0	0	509	458	
3	0	0	0	0	502	507	
4	0	0	0	0	472	572	
5	0	0	0	0	486	651	
6	0	0	0	0	461	735	
7	0	0	0	0	481	818	
8	0	0	0	0	472	889	
9	0	0	0	0	483	938	
10	0	0	0	0	473	944	
11	0	0	0	0	492	945	
12	0	0	0	0	484	944	
13	0	0	0	0	496	902	
14	0	0	0	0	479	837	
15	0	0	0	0	500	760	
0	0	0	0	0	477	676	
1	0	0	0	0	495	590	
2	0	0	0	0	491	506	
3	0	0	0	0	504	426	
4	0	0	0	0	503	356	
5	0	0	0	0	505	295	
6	0	0	0	0	508	245	
7	0	0	0	0	532	207	
8	0	0	0	0	516	181	
9	0	0	0	0	525	167	
10	0	0	0	0	491	165	
11	0	0	0	0	503	174	
12	0	0	0	0	483	191	
13	0	0	0	0	497	217	
14	0	0	0	0	477	249	
15	0	0	0	0	500	285	
0	0	0	0	0	488	323	
1	0	0	0	0	503	361	
2	0	0	0	0	488	396	
3	0	0	0	0	538	427	
4	0	0	0	0	627	454	
5	0	0	0	0	776	476	
6	0	0	0	0	571	493	
7	0	0	0	0	388	504	
8	0	0	0	0	408	510	
9	0	0	0	0	454	513	
10	0	0	0	0	461	509	
11	0	0	0	0	489	503	
12	0	0	0	0	483	496	
13	0	0	0	0	509	488	
14	0	0	0	0	487	479	
15	0	0	0	0	509	469	
0	0	0	0	0	500	458	
1	0	0	0	0	516	448	
2	0	0	0	0	505	440	
3	0	0	0	0	534	433	
4	0	0	0	0	518	428	
5	0	0	0	0	547	425	
6	0	0	0	0	534	424	
7	0	0	0	0	547	424	
8	0	0	0	0	533	425	
9	0	0	0	0	547	430	
10	0	0	0	0	534	439	
11	0	0	0	0	522	455	
12	0	0	0	0	509	479	
13	0	0	0	0	504	515	
14	0	0	0	0	481	564	
15	0	0	0	0	477	625	
0	0	0	0	0	458	692	
1	0	0	0	0	476	759	
2	0	0	0	0	462	818	
3	0	0	0	0	486	861	
4	0	0	0	0	473	883	
5	0	0	0	0	494	884	
6	0	0	0	0	478	863	
7	0	0	0	0	494	824	
8	0	0	0	0	490	769	
9	0	0	0	0	492	703	
10	0	0	0	0	478	630	
11	0	0	0	0	497	556	
12	0	0	0	0	488	483	
13	0	0	0	0	508	416	
14	0	0	0	0	492	356	
15	0	0	0	0	502	307	
0	0	0	0	0	507	268	
1	0	0	0	0	540	242	
2	0	0	0	0	523	227	
3	0	0	0	0	537	223	
4	0	0	0	0	508	227	
5	0	0	0	0	505	242	
6	0	0	0	0	482	263	
7	0	0	0	0	490	289	
8	0	0	0	0	490	318	
9	0	0	0	0	501	350	
10	0	0	0	0	489	383	
11	0	0	0	0	502	412	
12	0	0	0	0	487	441	
13	0	0	0	0	513	465	
14	0	0	0	0	524	482	
15	0	0	0	0	666	494	
0	0	0	0	0	776	502	
1	0	0	0	0	569	507	
2	0	0	0	0	372	506	
3	0	0	0	0	419	504	
4	0	0	0	0	441	499	
5	0	0	0	0	480	492	
6	0	0	0	0	463	484	
7	0	0	0	0	497	475	
8	0	0	0	0	484	465	
9	0	0	0	0	506	456	
10	0	0	0	0	497	448	
11	0	0	0	0	515	441	
12	0	0	0	0	507	434	
13	0	0	0	0	529	429	
14	0	0	0	0	518	426	
15	0	0	0	0	537	424	
0	0	0	0	0	527	423	
1	0	0	0	0	550	425	
2	0	0	0	0	541	428	
3	0	0	0	0	546	430	
4	0	0	0	0	530	434	
5	0	0	0	0	549	441	
6	0	0	0	0	523	454	
7	0	0	0	0	511	476	
8	0	0	0	0	498	510	
9	0	0	0	0	486	555	
10	0	0	0	0	473	608	
11	0	0	0	0	472	664	
12	0	0	0	0	459	720	
13	0	0	0	0	486	766	
14	0	0	0	0	478	798	
15	0	0	0	0	484	812	
0	0	0	0	0	470	807	
1	0	0	0	0	497	785	
2	0	0	0	0	480	748	
3	0	0	0	0	492	699	
4	0	0	0	0	481	640	
5	0	0	0	0	507	579	
6	0	0	0	0	487	517	
7	0	0	0	0	498	457	
8	0	0	0	0	489	403	
9	0	0	0	0	498	356	
10	0	0	0	0	499	318	
11	0	0	0	0	523	288	
12	0	0	0	0	516	270	
13	0	0	0	0	541	260	
14	0	0	0	0	523	261	
15	0	0	0	0	527	270	
0	0	0	0	0	498	286	
1	0	0	0	0	497	307	
2	0	0	0	0	487	332	
3	0	0	0	0	508	358	
4	0	0	0	0	477	382	
5	0	0	0	0	484	409	
6	0	0	0	0	487	436	
7	0	0	0	0	511	462	
8	0	0	0	0	480	483	
9	0	0	0	0	519	499	
10	0	0	0	0	610	512	
11	0	0	0	0	780	523	
12	0	0	0	0	621	527	
13	0	0	0	0	377	527	
14	0	0	0	0	387	523	
15	0	0	0	0	448	517	
0	0	0	0	0	451	510	
1	0	0	0	0	482	500	
2	0	0	0	0	482	490	
3	0	0	0	0	503	480	
4	0	0	0	0	484	469	
5	0	0	0	0	513	461	
6	0	0	0	0	507	454	
7	0	0	0	0	512	448	
8	0	0	0	0	508	443	
9	0	0	0	0	543	440	
10	0	0	0	0	523	438	
11	0	0	0	0	537	438	
12	0	0	0	0	533	439	
13	0	0	0	0	558	440	
14	0	0	0	0	536	442	
15	0	0	0	0	552	445	
0	0	0	0	0	530	450	
1	0	0	0	0	541	459	
2	0	0	0	0	514	475	
3	0	0	0	0	498	502	
4	0	0	0	0	491	540	
5	0	0	0	0	479	586	
6	0	0	0	0	472	637	
7	0	0	0	0	485	689	
8	0	0	0	0	456	738	
9	0	0	0	0	478	775	
10	0	0	0	0	468	798	
11	0	0	0	0	491	801	
12	0	0	0	0	471	785	
13	0	0	0	0	491	755	
14	0	0	0	0	492	713	
15	0	0	0	0	492	661	
0	0	0	0	0	484	603	
1	0	0	0	0	505	543	
2	0	0	0	0	489	483	
3	0	0	0	0	500	428	
4	0	0	0	0	492	379	
5	0	0	0	0	511	338	
6	0	0	0	0	507	307	
7	0	0	0	0	533	287	
8	0	0	0	0	519	275	
9	0	0	0	0	540	271	
10	0	0	0	0	517	277	
11	0	0	0	0	503	289	
12	0	0	0	0	483	304	
13	0	0	0	0	503	325	
14	0	0	0	0	480	348	
15	0	0	0	0	488	375	
0	0	0	0	0	481	402	
1	0	0	0	0	498	429	
2	0	0	0	0	497	455	
3	0	0	0	0	500	479	
4	0	0	0	0	534	498	
5	0	0	0	0	707	513	
6	0	0	0	0	778	524	
7	0	0	0	0	526	532	
8	0	0	0	0	359	536	
9	0	0	0	0	415	536	
10	0	0	0	0	443	530	
11	0	0	0	0	480	523	
12	0	0	0	0	483	513	
13	0	0	0	0	494	503	
14	0	0	0	0	486	491	
15	0	0	0	0	486	480	
0	0	0	0	0	510	468	
1	0	0	0	0	514	459	
2	0	0	0	0	523	452	
3	0	0	0	0	533	447	
4	0	0	0	0	523	443	
5	0	0	0	0	544	439	
6	0	0	0	0	519	434	
7	0	0	0	0	548	432	
8	0	0	0	0	557	433	
9	0	0	0	0	548	433	
10	0	0	0	0	548	436	
11	0	0	0	0	541	444	
12	0	0	0	0	518	457	
13	0	0	0	0	526	481	
14	0	0	0	0	493	516	
15	0	0	0	0	496	562	
0	0	0	0	0	472	616	
1	0	0	0	0	475	675	
2	0	0	0	0	475	736	
3	0	0	0	0	478	790	
4	0	0	0	0	462	830	
5	0	0	0	0	479	854	
6	0	0	0	0	487	859	
7	0	0	0	0	511	847	
8	0	0	0	0	473	817	
9	0	0	0	0	493	773	
10	0	0	0	0	479	719	
11	0	0	0	0	489	656	
12	0	0	0	0	487	588	
13	0	0	0	0	506	521	
14	0	0	0	0	485	459	
15	0	0	0	0	532	403	
0	0	0	0	0	507	355	
1	0	0	0	0	535	318	
2	0	0	0	0	474	290	
3	0	0	0	0	556	271	
4	0	0	0	0	516	263	
5	0	0	0	0	501	267	
6	0	0	0	0	480	279	
7	0	0	0	0	500	299	
8	0	0	0	0	468	323	
9	0	0	0	0	491	353	
10	0	0	0	0	479	383	
11	0	0	0	0	492	416	
12	0	0	0	0	497	448	
13	0	0	0	0	512	478	
14	0	0	0	0	498	505	
15	0	0	0	0	692	527	
0	0	0	0	0	790	545	
1	0	0	0	0	581	558	
2	0	0	0	0	343	567	
3	0	0	0	0	460	571	
4	0	0	0	0	424	569	
5	0	0	0	0	465	564	
6	0	0	0	0	458	555	
7	0	0	0	0	495	544	
8	0	0	0	0	463	529	
9	0	0	0	0	515	514	
10	0	0	0	0	502	499	
11	0	0	0	0	522	483	
12	0	0	0	0	501	468	
13	0	0	0	0	541	456	
14	0	0	0	0	498	445	
15	0	0	0	0	549	436	
0	0	0	0	0	514	431	
1	0	0	0	0	559	428	
2	0	0	0	0	534	426	
3	0	0	0	0	551	426	
4	0	0	0	0	517	430	
5	0	0	0	0	554	440	
6	0	0	0	0	506	457	
7	0	0	0	0	525	487	
8	0	0	0	0	472	532	
9	0	0	0	0	517	592	
10	0	0	0	0	443	666	
11	0	0	0	0	484	748	
12	0	0	0	0	434	829	
13	0	0	0	0	489	902	
14	0	0	0	0	440	944	
15	0	0	0	0	504	945	
0	0	0	0	0	455	945	
1	0	0	0	0	513	945	
2	0	0	0	0	479	945	
3	0	0	0	0	529	906	
4	0	0	0	0	453	835	
5	0	0	0	0	504	753	
6	0	0	0	0	445	664	
7	0	0	0	0	519	574	
8	0	0	0	0	486	485	
9	0	0	0	0	524	404	
10	0	0	0	0	489	332	
11	0	0	0	0	564	271	
12	0	0	0	0	497	225	
13	0	0	0	0	551	192	
14	0	0	0	0	463	174	
15	0	0	0	0	515	171	
0	0	0	0	0	445	182	
1	0	0	0	0	508	204	
2	0	0	0	0	438	234	
3	0	0	0	0	528	270	
4	0	0	0	0	432	309	
5	0	0	0	0	531	350	
6	0	0	0	0	419	392	
7	0	0	0	0	577	431	
8	0	0	0	0	598	465	
9	0	0	0	0	857	494	
10	0	0	0	0	503	517	
11	0	0	0	0	402	533	
12	0	0	0	0	339	544	
13	0	0	0	0	467	548	
14	0	0	0	0	389	547	
15	0	0	0	0	522	541	
0	0	0	0	0	442	531	
1	0	0	0	0	533	519	
2	0	0	0	0	431	504	
3	0	0	0	0	529	489	
4	0	0	0	0	464	475	
5	0	0	0	0	539	461	
6	0	0	0	0	457	449	
7	0	0	0	0	563	438	
8	0	0	0	0	465	427	
9	0	0	0	0	594	419	
10	0	0	0	0	468	414	
11	0	0	0	0	572	411	
12	0	0	0	0	480	409	
13	0	0	0	0	577	411	
14	0	0	0	0	486	419	
15	0	0	0	0	562	435	
0	0	0	0	0	447	462	
1	0	0	0	0	529	502	
2	0	0	0	0	419	557	
3	0	0	0	0	518	627	
4	0	0	0	0	418	704	
5	0	0	0	0	511	782	
6	0	0	0	0	402	854	
7	0	0	0	0	525	910	
8	0	0	0	0	408	942	
9	0	0	0	0	536	945	
10	0	0	0	0	404	944	
11	0	0	0	0	537	909	
12	0	0	0	0	434	856	
13	0	0	0	0	534	790	
14	0	0	0	0	420	715	
15	0	0	0	0	542	635	
0	0	0	0	0	423	554	
1	0	0	0	0	544	474	
2	0	0	0	0	459	399	
3	0	0	0	0	564	334	
4	0	0	0	0	466	279	
5	0	0	0	0	551	235	
6	0	0	0	0	432	203	
7	0	0	0	0	507	184	
8	0	0	0	0	418	177	
9	0	0	0	0	525	184	
10	0	0	0	0	433	201	
11	0	0	0	0	539	228	
12	0	0	0	0	415	262	
13	0	0	0	0	536	301	
14	0	0	0	0	429	340	
15	0	0	0	0	580	380	
0	0	0	0	0	568	418	
1	0	0	0	0	857	454	
2	0	0	0	0	508	482	
3	0	0	0	0	415	507	
4	0	0	0	0	334	524	
5	0	0	0	0	491	535	
6	0	0	0	0	385	539	
7	0	0	0	0	534	537	
8	0	0	0	0	402	531	
9	0	0	0	0	542	522	
10	0	0	0	0	430	511	
11	0	0	0	0	560	498	
12	0	0	0	0	428	485	
13	0	0	0	0	556	472	
14	0	0	0	0	430	459	
15	0	0	0	0	562	447	
0	0	0	0	0	455	436	
1	0	0	0	0	574	427	
2	0	0	0	0	464	421	
3	0	0	0	0	601	417	
4	0	0	0	0	484	415	
5	0	0	0	0	584	416	
6	0	0	0	0	441	423	
7	0	0	0	0	583	437	
8	0	0	0	0	448	461	
9	0	0	0	0	540	497	
10	0	0	0	0	412	551	
11	0	0	0	0	517	618	
12	0	0	0	0	376	692	
13	0	0	0	0	511	769	
14	0	0	0	0	399	840	
15	0	0	0	0	519	895	
0	0	0	0	0	398	930	
1	0	0	0	0	507	942	
2	0	0	0	0	421	933	
3	0	0	0	0	526	901	
4	0	0	0	0	418	850	
5	0	0	0	0	534	784	
6	0	0	0	0	396	707	
7	0	0	0	0	547	625	
8	0	0	0	0	412	543	
9	0	0	0	0	561	462	
10	0	0	0	0	440	387	
11	0	0	0	0	574	320	
12	0	0	0	0	420	263	
13	0	0	0	0	550	220	
14	0	0	0	0	409	192	
15	0	0	0	0	517	177	
0	0	0	0	0	395	176	
1	0	0	0	0	531	187	
2	0	0	0	0	394	209	
3	0	0	0	0	533	239	
4	0	0	0	0	405	275	
5	0	0	0	0	523	314	
6	0	0	0	0	414	354	
7	0	0	0	0	642	395	
8	0	0	0	0	676	433	
9	0	0	0	0	723	468	
10	0	0	0	0	308	500	
11	0	0	0	0	434	526	
12	0	0	0	0	355	546	
13	0	0	0	0	520	558	
14	0	0	0	0	385	563	
15	0	0	0	0	548	564	
0	0	0	0	0	408	558	
1	0	0	0	0	568	547	
2	0	0	0	0	391	533	
3	0	0	0	0	547	515	
4	0	0	0	0	432	496	
5	0	0	0	0	587	477	
6	0	0	0	0	434	458	
7	0	0	0	0	592	441	
8	0	0	0	0	462	429	
9	0	0	0	0	594	417	
10	0	0	0	0	450	408	
11	0	0	0	0	613	403	
12	0	0	0	0	441	399	
13	0	0	0	0	587	402	
14	0	0	0	0	419	411	
15	0	0	0	0	584	431	
0	0	0	0	0	396	464	
1	0	0	0	0	540	514	
2	0	0	0	0	384	580	
3	0	0	0	0	524	659	
4	0	0	0	0	371	739	
5	0	0	0	0	515	816	
6	0	0	0	0	364	882	
7	0	0	0	0	531	927	
8	0	0	0	0	393	944	
9	0	0	0	0	559	944	
10	0	0	0	0	371	923	
11	0	0	0	0	563	878	
12	0	0	0	0	371	818	
13	0	0	0	0	544	745	
14	0	0	0	0	403	666	
15	0	0	0	0	582	584	
0	0	0	0	0	415	501	
1	0	0	0	0	582	426	
2	0	0	0	0	425	357	
3	0	0	0	0	580	300	
4	0	0	0	0	407	255	
5	0	0	0	0	534	220	
6	0	0	0	0	376	202	
7	0	0	0	0	543	197	
8	0	0	0	0	377	202	
9	0	0	0	0	541	220	
10	0	0	0	0	386	246	
11	0	0	0	0	538	278	
12	0	0	0	0	384	317	
13	0	0	0	0	562	358	
14	0	0	0	0	565	398	
15	0	0	0	0	847	439	
0	0	0	0	0	523	478	
1	0	0	0	0	416	513	
2	0	0	0	0	323	541	
3	0	0	0	0	482	560	
4	0	0	0	0	411	573	
5	0	0	0	0	537	579	
6	0	0	0	0	420	577	
7	0	0	0	0	538	567	
8	0	0	0	0	433	551	
9	0	0	0	0	549	531	
10	0	0	0	0	473	507	
11	0	0	0	0	538	482	
12	0	0	0	0	470	456	
13	0	0	0	0	559	433	
14	0	0	0	0	488	412	
15	0	0	0	0	575	391	
0	0	0	0	0	487	377	
1	0	0	0	0	585	366	
2	0	0	0	0	494	359	
3	0	0	0	0	583	358	
4	0	0	0	0	487	363	
5	0	0	0	0	559	378	
6	0	0	0	0	462	405	
7	0	0	0	0	533	447	
8	0	0	0	0	423	507	
9	0	0	0	0	512	582	
10	0	0	0	0	418	664	
11	0	0	0	0	514	745	
12	0	0	0	0	419	818	
13	0	0	0	0	511	874	
14	0	0	0	0	438	911	
15	0	0	0	0	524	926	
0	0	0	0	0	429	916	
1	0	0	0	0	511	884	
2	0	0	0	0	442	835	
3	0	0	0	0	520	771	
4	0	0	0	0	434	697	
5	0	0	0	0	550	618	
6	0	0	0	0	451	540	
7	0	0	0	0	544	465	
8	0	0	0	0	480	395	
9	0	0	0	0	549	334	
10	0	0	0	0	435	284	
11	0	0	0	0	530	246	
12	0	0	0	0	394	221	
13	0	0	0	0	529	208	
14	0	0	0	0	425	207	
15	0	0	0	0	526	218	
0	0	0	0	0	419	238	
1	0	0	0	0	535	266	
2	0	0	0	0	417	300	
3	0	0	0	0	540	340	
4	0	0	0	0	516	380	
5	0	0	0	0	805	421	
6	0	0	0	0	581	460	
7	0	0	0	0	436	495	
8	0	0	0	0	323	524	
9	0	0	0	0	468	549	
10	0	0	0	0	404	567	
11	0	0	0	0	525	576	
12	0	0	0	0	428	579	
13	0	0	0	0	537	575	
14	0	0	0	0	425	566	
15	0	0	0	0	548	551	
0	0	0	0	0	443	534	
1	0	0	0	0	565	512	
2	0	0	0	0	452	491	
3	0	0	0	0	564	469	
4	0	0	0	0	474	448	
5	0	0	0	0	591	432	
6	0	0	0	0	468	417	
7	0	0	0	0	602	406	
8	0	0	0	0	467	398	
9	0	0	0	0	588	396	
10	0	0	0	0	465	398	
11	0	0	0	0	587	408	
12	0	0	0	0	442	428	
13	0	0	0	0	552	463	
14	0	0	0	0	401	516	
15	0	0	0	0	502	585	
0	0	0	0	0	401	664	
1	0	0	0	0	508	746	
2	0	0	0	0	395	823	
3	0	0	0	0	540	885	
4	0	0	0	0	392	928	
5	0	0	0	0	533	944	
6	0	0	0	0	414	944	
7	0	0	0	0	528	921	
8	0	0	0	0	409	878	
9	0	0	0	0	551	819	
10	0	0	0	0	414	751	
11	0	0	0	0	535	675	
12	0	0	0	0	436	596	
13	0	0	0	0	570	518	
14	0	0	0	0	434	445	
15	0	0	0	0	571	378	
0	0	0	0	0	415	319	
1	0	0	0	0	530	272	
2	0	0	0	0	400	237	
3	0	0	0	0	539	214	
4	0	0	0	0	391	203	
5	0	0	0	0	534	206	
6	0	0	0	0	405	220	
7	0	0	0	0	539	246	
8	0	0	0	0	398	278	
9	0	0	0	0	553	316	
10	0	0	0	0	509	358	
11	0	0	0	0	793	400	
12	0	0	0	0	560	441	
13	0	0	0	0	462	478	
14	0	0	0	0	323	508	
15	0	0	0	0	495	534	
0	0	0	0	0	389	551	
1	0	0	0	0	535	563	
2	0	0	0	0	404	565	
3	0	0	0	0	558	562	
4	0	0	0	0	423	553	
5	0	0	0	0	563	541	
6	0	0	0	0	427	524	
7	0	0	0	0	571	504	
8	0	0	0	0	441	482	
9	0	0	0	0	577	460	
10	0	0	0	0	459	439	
11	0	0	0	0	582	421	
12	0	0	0	0	478	407	
13	0	0	0	0	607	396	
14	0	0	0	0	464	388	
15	0	0	0	0	604	386	
0	0	0	0	0	459	391	
1	0	0	0	0	575	407	
2	0	0	0	0	429	436	
3	0	0	0	0	543	482	
4	0	0	0	0	420	545	
5	0	0	0	0	533	621	
6	0	0	0	0	380	704	
7	0	0	0	0	536	786	
8	0	0	0	0	379	858	
9	0	0	0	0	510	916	
10	0	0	0	0	406	944	
11	0	0	0	0	544	945	
12	0	0	0	0	404	944	
13	0	0	0	0	539	934	
14	0	0	0	0	426	889	
15	0	0	0	0	537	830	
0	0	0	0	0	410	762	
1	0	0	0	0	548	686	
2	0	0	0	0	455	608	
3	0	0	0	0	547	531	
4	0	0	0	0	451	459	
5	0	0	0	0	557	395	
6	0	0	0	0	391	337	
7	0	0	0	0	531	292	
8	0	0	0	0	411	258	
9	0	0	0	0	531	238	
10	0	0	0	0	422	228	
11	0	0	0	0	518	229	
12	0	0	0	0	402	242	
13	0	0	0	0	530	265	
14	0	0	0	0	416	299	
15	0	0	0	0	567	336	
0	0	0	0	0	556	377	
1	0	0	0	0	822	419	
2	0	0	0	0	516	460	
3	0	0	0	0	430	497	
4	0	0	0	0	356	529	
5	0	0	0	0	481	555	
6	0	0	0	0	413	572	
7	0	0	0	0	525	580	
8	0	0	0	0	396	581	
9	0	0	0	0	548	574	
10	0	0	0	0	445	561	
11	0	0	0	0	562	545	
12	0	0	0	0	428	524	
13	0	0	0	0	549	502	
14	0	0	0	0	435	480	
15	0	0	0	0	579	459	
0	0	0	0	0	466	439	
1	0	0	0	0	591	421	
2	0	0	0	0	469	407	
3	0	0	0	0	591	398	
4	0	0	0	0	463	392	
5	0	0	0	0	593	392	
6	0	0	0	0	467	403	
7	0	0	0	0	574	428	
8	0	0	0	0	436	470	
9	0	0	0	0	549	529	
10	0	0	0	0	393	604	
11	0	0	0	0	531	693	
12	0	0	0	0	394	787	
13	0	0	0	0	523	876	
14	0	0	0	0	398	944	
15	0	0	0	0	535	945	
0	0	0	0	0	405	945	
1	0	0	0	0	533	945	
2	0	0	0	0	410	945	
3	0	0	0	0	540	945	
4	0	0	0	0	430	945	
5	0	0	0	0	554	945	
6	0	0	0	0	407	901	
7	0	0	0	0	563	825	
8	0	0	0	0	429	744	
9	0	0	0	0	564	660	
10	0	0	0	0	467	578	
11	0	0	0	0	572	499	
12	0	0	0	0	445	426	
13	0	0	0	0	561	364	
14	0	0	0	0	395	313	
15	0	0	0	0	528	275	
0	0	0	0	0	406	252	
1	0	0	0	0	527	243	
2	0	0	0	0	415	247	
3	0	0	0	0	540	262	
4	0	0	0	0	402	287	
5	0	0	0	0	541	321	
6	0	0	0	0	444	360	
7	0	0	0	0	748	403	
8	0	0	0	0	707	444	
9	0	0	0	0	600	481	
10	0	0	0	0	296	515	
11	0	0	0	0	474	541	
12	0	0	0	0	359	560	
13	0	0	0	0	536	571	
14	0	0	0	0	404	575	
15	0	0	0	0	541	570	
0	0	0	0	0	413	559	
1	0	0	0	0	543	544	
2	0	0	0	0	430	525	
3	0	0	0	0	577	502	
4	0	0	0	0	453	478	
5	0	0	0	0	573	450	
6	0	0	0	0	460	423	
7	0	0	0	0	590	400	
8	0	0	0	0	463	380	
9	0	0	0	0	588	366	
10	0	0	0	0	466	357	
11	0	0	0	0	607	355	
12	0	0	0	0	473	363	
13	0	0	0	0	596	385	
14	0	0	0	0	447	423	
15	0	0	0	0	567	481	
0	0	0	0	0	399	559	
1	0	0	0	0	530	654	
2	0	0	0	0	411	759	
3	0	0	0	0	526	864	
4	0	0	0	0	391	945	
5	0	0	0	0	531	945	
6	0	0	0	0	380	945	
7	0	0	0	0	551	945	
8	0	0	0	0	401	945	
9	0	0	0	0	534	945	
10	0	0	0	0	400	945	
11	0	0	0	0	566	945	
12	0	0	0	0	413	945	
13	0	0	0	0	554	945	
14	0	0	0	0	412	907	
15	0	0	0	0	549	815	
0	0	0	0	0	434	718	
1	0	0	0	0	571	621	
2	0	0	0	0	449	529	
3	0	0	0	0	587	446	
4	0	0	0	0	419	372	
5	0	0	0	0	558	312	
6	0	0	0	0	424	267	
7	0	0	0	0	552	238	
8	0	0	0	0	391	227	
9	0	0	0	0	549	231	
10	0	0	0	0	406	248	
11	0	0	0	0	551	274	
12	0	0	0	0	412	310	
13	0	0	0	0	552	350	
14	0	0	0	0	420	392	
15	0	0	0	0	622	433	
0	0	0	0	0	664	471	
1	0	0	0	0	767	504	
2	0	0	0	0	376	531	
3	0	0	0	0	432	552	
4	0	0	0	0	341	565	
5	0	0	0	0	514	568	
6	0	0	0	0	376	567	
7	0	0	0	0	548	559	
8	0	0	0	0	391	546	
9	0	0	0	0	561	528	
10	0	0	0	0	440	505	
11	0	0	0	0	556	482	
12	0	0	0	0	429	457	
13	0	0	0	0	577	434	
14	0	0	0	0	437	412	
15	0	0	0	0	595	391	
0	0	0	0	0	459	374	
1	0	0	0	0	605	359	
2	0	0	0	0	448	350	
3	0	0	0	0	606	349	
4	0	0	0	0	475	356	
5	0	0	0	0	587	376	
6	0	0	0	0	452	410	
7	0	0	0	0	583	465	
8	0	0	0	0	424	542	
9	0	0	0	0	549	641	
10	0	0	0	0	376	755	
11	0	0	0	0	545	878	
12	0	0	0	0	396	945	
13	0	0	0	0	527	945	
14	0	0	0	0	400	945	
15	0	0	0	0	537	945	
0	0	0	0	0	390	945	
1	0	0	0	0	544	945	
2	0	0	0	0	404	945	
3	0	0	0	0	541	945	
4	0	0	0	0	414	945	
5	0	0	0	0	568	945	
6	0	0	0	0	406	945	
7	0	0	0	0	563	945	
8	0	0	0	0	426	945	
9	0	0	0	0	550	920	
10	0	0	0	0	433	807	
11	0	0	0	0	579	694	
12	0	0	0	0	445	583	
13	0	0	0	0	599	481	
14	0	0	0	0	416	396	
15	0	0	0	0	583	327	
0	0	0	0	0	415	277	
1	0	0	0	0	539	247	
2	0	0	0	0	394	234	
3	0	0	0	0	538	238	
4	0	0	0	0	383	256	
5	0	0	0	0	563	285	
6	0	0	0	0	414	320	
7	0	0	0	0	560	360	
8	0	0	0	0	391	399	
9	0	0	0	0	582	433	
10	0	0	0	0	588	466	
11	0	0	0	0	868	491	
12	0	0	0	0	526	510	
13	0	0	0	0	443	520	
14	0	0	0	0	299	524	
15	0	0	0	0	487	523	
0	0	0	0	0	382	515	
1	0	0	0	0	546	503	
2	0	0	0	0	401	487	
3	0	0	0	0	559	467	
4	0	0	0	0	411	447	
5	0	0	0	0	559	428	
6	0	0	0	0	416	408	
7	0	0	0	0	598	389	
8	0	0	0	0	441	374	
9	0	0	0	0	588	359	
10	0	0	0	0	440	350	
11	0	0	0	0	611	344	
12	0	0	0	0	447	342	
13	0	0	0	0	615	343	
14	0	0	0	0	479	351	
15	0	0	0	0	598	365	
0	0	0	0	0	453	391	
1	0	0	0	0	606	433	
2	0	0	0	0	433	495	
3	0	0	0	0	566	579	
4	0	0	0	0	404	686	
5	0	0	0	0	537	805	
6	0	0	0	0	371	928	
7	0	0	0	0	537	945	
8	0	0	0	0	391	945	
9	0	0	0	0	534	945	
10	0	0	0	0	390	945	
11	0	0	0	0	530	945	
12	0	0	0	0	382	945	
13	0	0	0	0	585	945	
14	0	0	0	0	400	945	
15	0	0	0	0	552	945	
0	0	0	0	0	408	945	
1	0	0	0	0	564	945	
2	0	0	0	0	395	945	
3	0	0	0	0	582	945	
4	0	0	0	0	413	945	
5	0	0	0	0	555	838	
6	0	0	0	0	412	718	
7	0	0	0	0	579	601	
8	0	0	0	0	423	496	
9	0	0	0	0	575	406	
10	0	0	0	0	456	334	
11	0	0	0	0	591	283	
12	0	0	0	0	422	251	
13	0	0	0	0	572	239	
14	0	0	0	0	391	243	
15	0	0	0	0	569	260	
0	0	0	0	0	409	289	
1	0	0	0	0	561	324	
2	0	0	0	0	404	361	
3	0	0	0	0	575	399	
4	0	0	0	0	389	433	
5	0	0	0	0	564	464	
6	0	0	0	0	392	490	
7	0	0	0	0	691	506	
8	0	0	0	0	632	518	
9	0	0	0	0	807	520	
10	0	0	0	0	310	516	
11	0	0	0	0	477	507	
12	0	0	0	0	253	494	
13	0	0	0	0	563	479	
14	0	0	0	0	335	463	
15	0	0	0	0	591	445	
0	0	0	0	0	352	428	
1	0	0	0	0	591	413	
2	0	0	0	0	379	398	
3	0	0	0	0	628	386	
4	0	0	0	0	367	376	
5	0	0	0	0	641	367	
6	0	0	0	0	392	363	
7	0	0	0	0	642	356	
8	0	0	0	0	373	353	
9	0	0	0	0	675	354	
10	0	0	0	0	415	356	
11	0	0	0	0	667	361	
12	0	0	0	0	423	370	
13	0	0	0	0	662	387	
14	0	0	0	0	359	418	
15	0	0	0	0	658	467	
0	0	0	0	0	369	540	
1	0	0	0	0	622	635	
2	0	0	0	0	353	750	
3	0	0	0	0	593	877	
4	0	0	0	0	305	945	
5	0	0	0	0	609	945	
6	0	0	0	0	329	945	
7	0	0	0	0	580	945	
8	0	0	0	0	345	945	
9	0	0	0	0	607	945	
10	0	0	0	0	303	945	
11	0	0	0	0	632	945	
12	0	0	0	0	360	945	
13	0	0	0	0	619	945	
14	0	0	0	0	355	945	
15	0	0	0	0	617	945	
0	0	0	0	0	323	945	
1	0	0	0	0	629	945	
2	0	0	0	0	357	945	
3	0	0	0	0	627	897	
4	0	0	0	0	353	773	
5	0	0	0	0	620	652	
6	0	0	0	0	322	540	
7	0	0	0	0	640	443	
8	0	0	0	0	384	366	
9	0	0	0	0	646	310	
10	0	0	0	0	383	275	
11	0	0	0	0	646	258	
12	0	0	0	0	342	259	
13	0	0	0	0	643	272	
14	0	0	0	0	350	296	
15	0	0	0	0	627	327	
0	0	0	0	0	342	362	
1	0	0	0	0	636	395	
2	0	0	0	0	340	426	
3	0	0	0	0	640	453	
4	0	0	0	0	322	473	
5	0	0	0	0	653	485	
6	0	0	0	0	453	492	
7	0	0	0	0	879	493	
8	0	0	0	0	505	488	
9	0	0	0	0	571	480	
10	0	0	0	0	251	467	
11	0	0	0	0	555	454	
12	0	0	0	0	305	438	
13	0	0	0	0	609	422	
14	0	0	0	0	305	407	
15	0	0	0	0	639	392	
0	0	0	0	0	350	379	
1	0	0	0	0	649	368	
2	0	0	0	0	362	360	
3	0	0	0	0	636	354	
4	0	0	0	0	331	350	
5	0	0	0	0	684	349	
6	0	0	0	0	391	349	
7	0	0	0	0	667	350	
8	0	0	0	0	403	353	
9	0	0	0	0	678	359	
10	0	0	0	0	409	367	
11	0	0	0	0	682	379	
12	0	0	0	0	367	398	
13	0	0	0	0	687	428	
14	0	0	0	0	390	476	
15	0	0	0	0	637	546	
0	0	0	0	0	316	636	
1	0	0	0	0	628	748	
2	0	0	0	0	327	876	
3	0	0	0	0	600	945	
4	0	0	0	0	289	945	
5	0	0	0	0	618	945	
6	0	0	0	0	323	945	
7	0	0	0	0	616	945	
8	0	0	0	0	349	945	
9	0	0	0	0	616	946	
10	0	0	0	0	300	945	
11	0	0	0	0	647	946	
12	0	0	0	0	355	945	
13	0	0	0	0	630	945	
14	0	0	0	0	344	946	
15	0	0	0	0	634	946	
0	0	0	0	0	307	945	
1	0	0	0	0	662	945	
2	0	0	0	0	364	945	
3	0	0	0	0	649	945	
4	0	0	0	0	369	945	
5	0	0	0	0	649	904	
6	0	0	0	0	372	783	
7	0	0	0	0	668	669	
8	0	0	0	0	346	568	
9	0	0	0	0	675	484	
10	0	0	0	0	375	420	
11	0	0	0	0	624	374	
12	0	0	0	0	345	347	
13	0	0	0	0	627	336	
14	0	0	0	0	302	338	
15	0	0	0	0	651	351	
0	0	0	0	0	341	373	
1	0	0	0	0	629	397	
2	0	0	0	0	353	423	
3	0	0	0	0	644	446	
4	0	0	0	0	432	463	
5	0	0	0	0	880	476	
6	0	0	0	0	507	485	
7	0	0	0	0	608	488	
8	0	0	0	0	243	486	
9	0	0	0	0	570	480	
10	0	0	0	0	298	471	
11	0	0	0	0	640	460	
12	0	0	0	0	310	450	
13	0	0	0	0	652	438	
14	0	0	0	0	320	426	
15	0	0	0	0	649	414	
0	0	0	0	0	358	403	
1	0	0	0	0	657	394	
2	0	0	0	0	330	386	
3	0	0	0	0	697	379	
4	0	0	0	0	377	375	
5	0	0	0	0	675	374	
6	0	0	0	0	389	374	
7	0	0	0	0	694	375	
8	0	0	0	0	379	379	
9	0	0	0	0	708	388	
10	0	0	0	0	401	401	
11	0	0	0	0	698	428	
12	0	0	0	0	333	467	
13	0	0	0	0	681	528	
14	0	0	0	0	347	615	
15	0	0	0	0	632	730	
0	0	0	0	0	321	867	
1	0	0	0	0	618	945	
2	0	0	0	0	317	946	
3	0	0	0	0	633	946	
4	0	0	0	0	292	946	
5	0	0	0	0	643	946	
6	0	0	0	0	345	946	
7	0	0	0	0	639	946	
8	0	0	0	0	295	946	
9	0	0	0	0	645	946	
10	0	0	0	0	331	946	
11	0	0	0	0	644	946	
12	0	0	0	0	350	946	
13	0	0	0	0	658	946	
14	0	0	0	0	318	946	
15	0	0	0	0	673	946	
0	0	0	0	0	351	946	
1	0	0	0	0	647	946	
2	0	0	0	0	358	946	
3	0	0	0	0	675	946	
4	0	0	0	0	375	946	
5	0	0	0	0	692	946	
6	0	0	0	0	360	946	
7	0	0	0	0	695	946	
8	0	0	0	0	379	946	
9	0	0	0	0	652	946	
10	0	0	0	0	355	946	
11	0	0	0	0	656	946	
12	0	0	0	0	311	946	
13	0	0	0	0	651	946	
14	0	0	0	0	347	946	
15	0	0	0	0	652	946	
0	0	0	0	0	325	946	
1	0	0	0	0	665	946	
2	0	0	0	0	371	946	
3	0	0	0	0	870	946	
4	0	0	0	0	566	866	
5	0	0	0	0	652	765	
6	0	0	0	0	195	670	
7	0	0	0	0	581	583	
8	0	0	0	0	271	509	
9	0	0	0	0	633	444	
10	0	0	0	0	332	390	
11	0	0	0	0	635	345	
12	0	0	0	0	344	311	
13	0	0	0	0	655	285	
14	0	0	0	0	350	266	
15	0	0	0	0	670	254	
0	0	0	0	0	353	247	
1	0	0	0	0	679	244	
2	0	0	0	0	333	246	
3	0	0	0	0	716	253	
4	0	0	0	0	392	264	
5	0	0	0	0	697	278	
6	0	0	0	0	374	293	
7	0	0	0	0	734	309	
8	0	0	0	0	397	323	
9	0	0	0	0	710	343	
10	0	0	0	0	365	375	
11	0	0	0	0	669	422	
12	0	0	0	0	309	491	
13	0	0	0	0	658	584	
14	0	0	0	0	324	700	
15	0	0	0	0	652	831	
0	0	0	0	0	329	946	
1	0	0	0	0	635	946	
2	0	0	0	0	282	946	
3	0	0	0	0	659	946	
4	0	0	0	0	341	946	
5	0	0	0	0	650	946	
6	0	0	0	0	334	946	
7	0	0	0	0	653	946	
8	0	0	0	0	344	946	
9	0	0	0	0	668	946	
10	0	0	0	0	327	946	
11	0	0	0	0	678	946	
12	0	0	0	0	356	946	
13	0	0	0	0	663	946	
14	0	0	0	0	350	946	
15	0	0	0	0	675	946	
0	0	0	0	0	323	946	
1	0	0	0	0	691	946	
2	0	0	0	0	374	946	
3	0	0	0	0	700	946	
4	0	0	0	0	384	935	
5	0	0	0	0	688	800	
6	0	0	0	0	356	677	
7	0	0	0	0	662	570	
8	0	0	0	0	314	481	
9	0	0	0	0	674	411	
10	0	0	0	0	335	362	
11	0	0	0	0	653	330	
12	0	0	0	0	343	315	
13	0	0	0	0	652	312	
14	0	0	0	0	311	317	
15	0	0	0	0	670	327	
0	0	0	0	0	370	342	
1	0	0	0	0	828	357	
2	0	0	0	0	608	371	
3	0	0	0	0	751	382	
4	0	0	0	0	233	391	
5	0	0	0	0	596	396	
6	0	0	0	0	284	400	
7	0	0	0	0	641	400	
8	0	0	0	0	335	400	
9	0	0	0	0	673	398	
10	0	0	0	0	318	396	
11	0	0	0	0	672	392	
12	0	0	0	0	359	389	
13	0	0	0	0	684	385	
14	0	0	0	0	319	381	
15	0	0	0	0	711	377	
0	0	0	0	0	366	375	
1	0	0	0	0	696	371	
2	0	0	0	0	385	367	
3	0	0	0	0	710	362	
4	0	0	0	0	382	359	
5	0	0	0	0	743	357	
6	0	0	0	0	402	358	
7	0	0	0	0	707	364	
8	0	0	0	0	380	378	
9	0	0	0	0	681	409	
10	0	0	0	0	316	463	
11	0	0	0	0	677	544	
12	0	0	0	0	331	655	
13	0	0	0	0	639	793	
14	0	0	0	0	326	942	
15	0	0	0	0	656	946	
0	0	0	0	0	313	946	
1	0	0	0	0	659	946	
2	0	0	0	0	319	946	
3	0	0	0	0	674	946	
4	0	0	0	0	338	946	
5	0	0	0	0	657	946	
6	0	0	0	0	337	946	
7	0	0	0	0	681	946	
8	0	0	0	0	323	946	
9	0	0	0	0	680	946	
10	0	0	0	0	337	946	
11	0	0	0	0	680	946	
12	0	0	0	0	345	946	
13	0	0	0	0	680	946	
14	0	0	0	0	310	946	
15	0	0	0	0	704	946	
0	0	0	0	0	338	946	
1	0	0	0	0	712	946	
2	0	0	0	0	380	946	
3	0	0	0	0	715	946	
4	0	0	0	0	359	943	
5	0	0	0	0	696	776	
6	0	0	0	0	337	633	
7	0	0	0	0	681	507	
8	0	0	0	0	323	403	
9	0	0	0	0	650	321	
10	0	0	0	0	327	264	
11	0	0	0	0	680	225	
12	0	0	0	0	318	205	
13	0	0	0	0	672	197	
14	0	0	0	0	345	200	
15	0	0	0	0	752	211	
0	0	0	0	0	516	227	
1	0	0	0	0	892	243	
2	0	0	0	0	308	262	
3	0	0	0	0	590	280	
4	0	0	0	0	269	295	
5	0	0	0	0	640	307	
6	0	0	0	0	320	315	
7	0	0	0	0	667	319	
8	0	0	0	0	335	321	
9	0	0	0	0	693	319	
10	0	0	0	0	324	318	
11	0	0	0	0	703	315	
12	0	0	0	0	364	310	
13	0	0	0	0	703	305	
14	0	0	0	0	344	299	
15	0	0	0	0	725	294	
0	0	0	0	0	350	289	
1	0	0	0	0	723	285	
2	0	0	0	0	394	283	
3	0	0	0	0	739	282	
4	0	0	0	0	358	283	
5	0	0	0	0	749	287	
6	0	0	0	0	366	298	
7	0	0	0	0	721	323	
8	0	0	0	0	351	366	
9	0	0	0	0	684	430	
10	0	0	0	0	327	521	
11	0	0	0	0	687	639	
12	0	0	0	0	292	781	
13	0	0	0	0	678	937	
14	0	0	0	0	295	946	
15	0	0	0	0	670	946	
0	0	0	0	0	328	946	
1	0	0	0	0	669	947	
2	0	0	0	0	333	946	
3	0	0	0	0	689	947	
4	0	0	0	0	313	946	
5	0	0	0	0	693	947	
6	0	0	0	0	341	946	
7	0	0	0	0	680	947	
8	0	0	0	0	340	947	
9	0	0	0	0	702	947	
10	0	0	0	0	335	946	
11	0	0	0	0	712	946	
12	0	0	0	0	351	946	
13	0	0	0	0	696	946	
14	0	0	0	0	353	946	
15	0	0	0	0	706	946	
0	0	0	0	0	337	946	
1	0	0	0	0	727	946	
2	0	0	0	0	363	946	
3	0	0	0	0	725	946	
4	0	0	0	0	369	856	
5	0	0	0	0	705	722	
6	0	0	0	0	312	604	
7	0	0	0	0	704	504	
8	0	0	0	0	328	423	
9	0	0	0	0	670	364	
10	0	0	0	0	337	321	
11	0	0	0	0	678	292	
12	0	0	0	0	308	278	
13	0	0	0	0	711	270	
14	0	0	0	0	363	267	
15	0	0	0	0	804	264	
0	0	0	0	0	566	259	
1	0	0	0	0	808	250	
2	0	0	0	0	238	238	
3	0	0	0	0	605	221	
4	0	0	0	0	281	199	
5	0	0	0	0	663	177	
6	0	0	0	0	313	155	
7	0	0	0	0	682	135	
8	0	0	0	0	315	117	
9	0	0	0	0	704	103	
10	0	0	0	0	332	93	
11	0	0	0	0	710	86	
12	0	0	0	0	329	81	
13	0	0	0	0	741	78	
14	0	0	0	0	361	78	
15	0	0	0	0	728	81	
0	0	0	0	0	371	86	
1	0	0	0	0	744	94	
2	0	0	0	0	391	105	
3	0	0	0	0	764	120	
4	0	0	0	0	383	142	
5	0	0	0	0	755	169	
6	0	0	0	0	376	200	
7	0	0	0	0	726	237	
8	0	0	0	0	326	275	
9	0	0	0	0	705	313	
10	0	0	0	0	319	352	
11	0	0	0	0	673	394	
12	0	0	0	0	311	435	
13	0	0	0	0	673	474	
14	0	0	0	0	316	506	
15	0	0	0	0	675	531	
0	0	0	0	0	300	547	
1	0	0	0	0	695	555	
2	0	0	0	0	347	555	
3	0	0	0	0	690	547	
4	0	0	0	0	340	534	
5	0	0	0	0	696	518	
6	0	0	0	0	326	496	
7	0	0	0	0	704	470	
8	0	0	0	0	351	442	
9	0	0	0	0	694	416	
10	0	0	0	0	345	392	
11	0	0	0	0	709	372	
12	0	0	0	0	329	355	
13	0	0	0	0	716	345	
14	0	0	0	0	338	340	
15	0	0	0	0	719	340	
0	0	0	0	0	364	342	
1	0	0	0	0	711	350	
2	0	0	0	0	391	359	
3	0	0	0	0	746	371	
4	0	0	0	0	354	381	
5	0	0	0	0	724	391	
6	0	0	0	0	356	404	
7	0	0	0	0	712	417	
8	0	0	0	0	318	429	
9	0	0	0	0	709	442	
10	0	0	0	0	339	454	
11	0	0	0	0	711	465	
12	0	0	0	0	338	475	
13	0	0	0	0	698	484	
14	0	0	0	0	355	489	
15	0	0	0	0	813	492	
0	0	0	0	0	565	492	
1	0	0	0	0	841	490	
2	0	0	0	0	242	486	
3	0	0	0	0	619	480	
4	0	0	0	0	280	476	
5	0	0	0	0	668	473	
6	0	0	0	0	300	469	
7	0	0	0	0	704	465	
8	0	0	0	0	312	460	
9	0	0	0	0	703	455	
10	0	0	0	0	348	450	
11	0	0	0	0	734	446	
12	0	0	0	0	351	445	
13	0	0	0	0	726	446	
14	0	0	0	0	363	446	
15	0	0	0	0	741	448	
0	0	0	0	0	382	449	
1	0	0	0	0	760	451	
2	0	0	0	0	381	454	
3	0	0	0	0	776	455	
4	0	0	0	0	391	455	
5	0	0	0	0	752	452	
6	0	0	0	0	351	449	
7	0	0	0	0	755	446	
8	0	0	0	0	361	443	
9	0	0	0	0	690	445	
10	0	0	0	0	299	449	
11	0	0	0	0	684	459	
12	0	0	0	0	313	472	
13	0	0	0	0	678	487	
14	0	0	0	0	312	499	
15	0	0	0	0	686	508	
0	0	0	0	0	319	512	
1	0	0	0	0	705	511	
2	0	0	0	0	329	505	
3	0	0	0	0	706	494	
4	0	0	0	0	315	480	
5	0	0	0	0	721	464	
6	0	0	0	0	328	448	
7	0	0	0	0	726	434	
8	0	0	0	0	341	419	
9	0	0	0	0	715	407	
10	0	0	0	0	350	393	
11	0	0	0	0	717	383	
12	0	0	0	0	339	376	
13	0	0	0	0	728	370	
14	0	0	0	0	347	366	
15	0	0	0	0	728	366	
0	0	0	0	0	366	367	
1	0	0	0	0	738	369	
2	0	0	0	0	382	372	
3	0	0	0	0	756	377	
4	0	0	0	0	346	385	
5	0	0	0	0	727	392	
6	0	0	0	0	339	400	
7	0	0	0	0	705	408	
8	0	0	0	0	318	417	
9	0	0	0	0	728	428	
10	0	0	0	0	327	435	
11	0	0	0	0	702	442	
12	0	0	0	0	343	448	
13	0	0	0	0	738	450	
14	0	0	0	0	413	452	
15	0	0	0	0	957	454	
0	0	0	0	0	457	454	
1	0	0	0	0	628	455	
2	0	0	0	0	243	459	
3	0	0	0	0	647	463	
4	0	0	0	0	296	467	
5	0	0	0	0	676	468	
6	0	0	0	0	335	470	
7	0	0	0	0	724	470	
8	0	0	0	0	328	468	
9	0	0	0	0	718	464	
10	0	0	0	0	346	458	
11	0	0	0	0	732	451	
12	0	0	0	0	336	445	
13	0	0	0	0	743	440	
14	0	0	0	0	363	436	
15	0	0	0	0	748	433	
0	0	0	0	0	378	430	
1	0	0	0	0	757	428	
2	0	0	0	0	386	425	
3	0	0	0	0	756	423	
4	0	0	0	0	377	423	
5	0	0	0	0	766	423	
6	0	0	0	0	373	424	
7	0	0	0	0	722	428	
8	0	0	0	0	313	434	
9	0	0	0	0	704	441	
10	0	0	0	0	293	448	
11	0	0	0	0	694	457	
12	0	0	0	0	298	465	
13	0	0	0	0	690	472	
14	0	0	0	0	312	478	
15	0	0	0	0	700	481	
0	0	0	0	0	323	484	
1	0	0	0	0	713	484	
2	0	0	0	0	325	481	
3	0	0	0	0	716	475	
4	0	0	0	0	324	469	
5	0	0	0	0	715	460	
6	0	0	0	0	338	452	
7	0	0	0	0	715	443	
8	0	0	0	0	359	434	
9	0	0	0	0	709	427	
10	0	0	0	0	343	421	
11	0	0	0	0	726	415	
12	0	0	0	0	332	410	
13	0	0	0	0	745	406	
14	0	0	0	0	384	403	
15	0	0	0	0	763	402	
0	0	0	0	0	371	403	
1	0	0	0	0	742	407	
2	0	0	0	0	348	411	
3	0	0	0	0	714	418	
4	0	0	0	0	335	427	
5	0	0	0	0	731	437	
6	0	0	0	0	334	446	
7	0	0	0	0	722	454	
8	0	0	0	0	325	461	
9	0	0	0	0	710	467	
10	0	0	0	0	331	470	
11	0	0	0	0	784	470	
12	0	0	0	0	509	470	
13	0	0	0	0	1003	467	
14	0	0	0	0	402	464	
15	0	0	0	0	588	461	
0	0	0	0	0	255	458	
1	0	0	0	0	661	456	
2	0	0	0	0	289	453	
3	0	0	0	0	702	451	
4	0	0	0	0	330	450	
5	0	0	0	0	723	449	
6	0	0	0	0	336	448	
7	0	0	0	0	728	447	
8	0	0	0	0	352	448	
9	0	0	0	0	744	448	
10	0	0	0	0	365	449	
11	0	0	0	0	756	450	
12	0	0	0	0	336	448	
13	0	0	0	0	773	446	
14	0	0	0	0	371	445	
15	0	0	0	0	771	443	
0	0	0	0	0	380	441	
1	0	0	0	0	762	440	
2	0	0	0	0	389	439	
3	0	0	0	0	753	439	
4	0	0	0	0	338	441	
5	0	0	0	0	746	444	
6	0	0	0	0	318	449	
7	0	0	0	0	690	456	
8	0	0	0	0	303	464	
9	0	0	0	0	684	472	
10	0	0	0	0	297	484	
11	0	0	0	0	712	495	
12	0	0	0	0	318	504	
13	0	0	0	0	705	510	
14	0	0	0	0	325	511	
15	0	0	0	0	710	509	
0	0	0	0	0	329	504	
1	0	0	0	0	725	497	
2	0	0	0	0	334	489	
3	0	0	0	0	730	482	
4	0	0	0	0	346	473	
5	0	0	0	0	714	466	
6	0	0	0	0	337	457	
7	0	0	0	0	724	449	
8	0	0	0	0	335	445	
9	0	0	0	0	750	442	
10	0	0	0	0	369	438	
11	0	0	0	0	768	436	
12	0	0	0	0	377	435	
13	0	0	0	0	753	434	
14	0	0	0	0	349	436	
15	0	0	0	0	744	437	
0	0	0	0	0	310	439	
1	0	0	0	0	715	443	
2	0	0	0	0	335	446	
3	0	0	0	0	708	452	
4	0	0	0	0	328	457	
5	0	0	0	0	723	461	
6	0	0	0	0	333	464	
7	0	0	0	0	731	466	
8	0	0	0	0	440	468	
9	0	0	0	0	948	468	
10	0	0	0	0	505	469	
11	0	0	0	0	635	466	
12	0	0	0	0	234	464	
13	0	0	0	0	668	462	
14	0	0	0	0	310	459	
15	0	0	0	0	702	455	
0	0	0	0	0	318	452	
1	0	0	0	0	723	448	
2	0	0	0	0	325	444	
3	0	0	0	0	748	441	
4	0	0	0	0	369	439	
5	0	0	0	0	748	438	
6	0	0	0	0	360	438	
7	0	0	0	0	721	439	
8	0	0	0	0	398	438	
9	0	0	0	0	767	439	
10	0	0	0	0	380	439	
11	0	0	0	0	770	440	
12	0	0	0	0	386	442	
13	0	0	0	0	801	444	
14	0	0	0	0	413	446	
15	0	0	0	0	697	450	
0	0	0	0	0	391	455	
1	0	0	0	0	709	461	
2	0	0	0	0	406	467	
3	0	0	0	0	611	477	
4	0	0	0	0	443	491	
5	0	0	0	0	524	509	
6	0	0	0	0	440	531	
7	0	0	0	0	478	556	
8	0	0	0	0	452	582	
9	0	0	0	0	508	606	
10	0	0	0	0	470	623	
11	0	0	0	0	503	634	
12	0	0	0	0	493	636	
13	0	0	0	0	509	631	
14	0	0	0	0	473	621	
15	0	0	0	0	525	606	
0	0	0	0	0	484	590	
1	0	0	0	0	524	571	
2	0	0	0	0	516	552	
3	0	0	0	0	510	531	
4	0	0	0	0	517	511	
5	0	0	0	0	517	490	
6	0	0	0	0	493	472	
7	0	0	0	0	568	456	
8	0	0	0	0	549	443	
9	0	0	0	0	540	433	
10	0	0	0	0	527	426	
11	0	0	0	0	499	423	
12	0	0	0	0	494	424	
13	0	0	0	0	515	428	
14	0	0	0	0	510	434	
15	0	0	0	0	508	443	
0	0	0	0	0	485	451	
1	0	0	0	0	501	460	
2	0	0	0	0	482	468	
3	0	0	0	0	515	476	
4	0	0	0	0	560	481	
5	0	0	0	0	735	484	
6	0	0	0	0	691	485	
7	0	0	0	0	434	483	
8	0	0	0	0	376	481	
9	0	0	0	0	427	480	
10	0	0	0	0	433	476	
11	0	0	0	0	465	472	
12	0	0	0	0	466	468	
13	0	0	0	0	509	464	
14	0	0	0	0	497	462	
15	0	0	0	0	504	460	
0	0	0	0	0	497	460	
1	0	0	0	0	513	460	
2	0	0	0	0	501	460	
3	0	0	0	0	541	460	
4	0	0	0	0	521	460	
5	0	0	0	0	540	460	
6	0	0	0	0	516	460	
7	0	0	0	0	548	461	
8	0	0	0	0	549	460	
9	0	0	0	0	550	460	
10	0	0	0	0	535	461	
11	0	0	0	0	539	460	
12	0	0	0	0	512	463	
13	0	0	0	0	524	469	
14	0	0	0	0	489	481	
15	0	0	0	0	490	499	
0	0	0	0	0	464	526	
1	0	0	0	0	472	561	
2	0	0	0	0	463	602	
3	0	0	0	0	480	643	
4	0	0	0	0	478	676	
5	0	0	0	0	496	700	
6	0	0	0	0	475	707	
7	0	0	0	0	503	701	
8	0	0	0	0	490	681	
9	0	0	0	0	495	648	
10	0	0	0	0	496	608	
11	0	0	0	0	506	562	
12	0	0	0	0	487	517	
13	0	0	0	0	497	475	
14	0	0	0	0	496	436	
15	0	0	0	0	508	405	
0	0	0	0	0	514	379	
1	0	0	0	0	520	360	
2	0	0	0	0	520	348	
3	0	0	0	0	543	341	
4	0	0	0	0	526	340	
5	0	0	0	0	538	342	
6	0	0	0	0	516	349	
7	0	0	0	0	509	357	
8	0	0	0	0	484	369	
9	0	0	0	0	502	381	
10	0	0	0	0	484	395	
11	0	0	0	0	496	408	
12	0	0	0	0	501	422	
13	0	0	0	0	508	434	
14	0	0	0	0	492	444	
15	0	0	0	0	531	454	
0	0	0	0	0	606	462	
1	0	0	0	0	778	469	
2	0	0	0	0	601	472	
3	0	0	0	0	382	472	
4	0	0	0	0	412	473	
5	0	0	0	0	451	471	
6	0	0	0	0	459	467	
7	0	0	0	0	495	463	
8	0	0	0	0	478	460	
9	0	0	0	0	512	456	
10	0	0	0	0	496	453	
11	0	0	0	0	520	451	
12	0	0	0	0	508	450	
13	0	0	0	0	514	450	
14	0	0	0	0	529	451	
15	0	0	0	0	542	451	
0	0	0	0	0	531	454	
1	0	0	0	0	550	456	
2	0	0	0	0	537	457	
3	0	0	0	0	554	459	
4	0	0	0	0	542	459	
5	0	0	0	0	549	460	
6	0	0	0	0	531	460	
7	0	0	0	0	542	461	
8	0	0	0	0	523	463	
9	0	0	0	0	516	469	
10	0	0	0	0	494	478	
11	0	0	0	0	491	490	
12	0	0	0	0	464	507	
13	0	0	0	0	477	526	
14	0	0	0	0	475	546	
15	0	0	0	0	479	566	
0	0	0	0	0	479	580	
1	0	0	0	0	497	589	
2	0	0	0	0	482	591	
3	0	0	0	0	498	584	
4	0	0	0	0	492	572	
5	0	0	0	0	509	555	
6	0	0	0	0	492	536	
7	0	0	0	0	505	515	
8	0	0	0	0	492	494	
9	0	0	0	0	513	475	
10	0	0	0	0	491	457	
11	0	0	0	0	519	443	
12	0	0	0	0	500	431	
13	0	0	0	0	529	423	
14	0	0	0	0	533	417	
15	0	0	0	0	554	414	
0	0	0	0	0	527	413	
1	0	0	0	0	517	413	
2	0	0	0	0	500	415	
3	0	0	0	0	500	419	
4	0	0	0	0	479	424	
5	0	0	0	0	507	430	
6	0	0	0	0	493	435	
7	0	0	0	0	499	441	
8	0	0	0	0	493	449	
9	0	0	0	0	503	457	
10	0	0	0	0	510	464	
11	0	0	0	0	581	472	
12	0	0	0	0	719	479	
13	0	0	0	0	678	484	
14	0	0	0	0	428	487	
15	0	0	0	0	396	489	
0	0	0	0	0	429	491	
1	0	0	0	0	474	491	
2	0	0	0	0	481	489	
3	0	0	0	0	510	486	
4	0	0	0	0	494	484	
5	0	0	0	0	510	480	
6	0	0	0	0	506	476	
7	0	0	0	0	523	472	
8	0	0	0	0	517	468	
9	0	0	0	0	535	465	
10	0	0	0	0	514	460	
11	0	0	0	0	538	455	
12	0	0	0	0	527	452	
13	0	0	0	0	555	449	
14	0	0	0	0	552	448	
15	0	0	0	0	558	447	
0	0	0	0	0	542	446	
1	0	0	0	0	541	446	
2	0	0	0	0	527	446	
3	0	0	0	0	536	446	
4	0	0	0	0	508	448	
5	0	0	0	0	511	454	
6	0	0	0	0	477	462	
7	0	0	0	0	470	474	
8	0	0	0	0	471	489	
9	0	0	0	0	481	504	
10	0	0	0	0	469	518	
11	0	0	0	0	480	528	
12	0	0	0	0	486	536	
13	0	0	0	0	489	538	
14	0	0	0	0	480	534	
15	0	0	0	0	499	526	
0	0	0	0	0	496	515	
1	0	0	0	0	507	501	
2	0	0	0	0	500	487	
3	0	0	0	0	506	474	
4	0	0	0	0	490	460	
5	0	0	0	0	511	447	
6	0	0	0	0	509	434	
7	0	0	0	0	529	424	
8	0	0	0	0	527	416	
9	0	0	0	0	546	411	
10	0	0	0	0	527	408	
11	0	0	0	0	525	408	
12	0	0	0	0	503	411	
13	0	0	0	0	507	415	
14	0	0	0	0	493	420	
15	0	0	0	0	501	426	
0	0	0	0	0	492	431	
1	0	0	0	0	500	437	
2	0	0	0	0	497	443	
3	0	0	0	0	487	450	
4	0	0	0	0	507	454	
5	0	0	0	0	551	459	
6	0	0	0	0	653	461	
7	0	0	0	0	770	462	
8	0	0	0	0	537	463	
9	0	0	0	0	383	462	
10	0	0	0	0	417	462	
11	0	0	0	0	463	462	
12	0	0	0	0	472	462	
13	0	0	0	0	492	461	
14	0	0	0	0	487	459	
15	0	0	0	0	517	457	
0	0	0	0	0	495	455	
1	0	0	0	0	516	453	
2	0	0	0	0	511	453	
3	0	0	0	0	531	454	
4	0	0	0	0	525	452	
5	0	0	0	0	534	451	
6	0	0	0	0	527	450	
7	0	0	0	0	547	449	
8	0	0	0	0	537	448	
9	0	0	0	0	563	446	
10	0	0	0	0	542	444	
11	0	0	0	0	550	440	
12	0	0	0	0	532	438	
13	0	0	0	0	527	436	
14	0	0	0	0	509	437	
15	0	0	0	0	514	440	
0	0	0	0	0	482	446	
1	0	0	0	0	486	455	
2	0	0	0	0	466	471	
3	0	0	0	0	479	489	
4	0	0	0	0	464	509	
5	0	0	0	0	484	524	
6	0	0	0	0	476	536	
7	0	0	0	0	494	540	
8	0	0	0	0	483	537	
9	0	0	0	0	501	532	
10	0	0	0	0	488	524	
11	0	0	0	0	502	511	
12	0	0	0	0	491	496	
13	0	0	0	0	509	482	
14	0	0	0	0	509	466	
15	0	0	0	0	517	451	
0	0	0	0	0	500	438	
1	0	0	0	0	541	425	
2	0	0	0	0	528	415	
3	0	0	0	0	545	409	
4	0	0	0	0	523	405	
5	0	0	0	0	519	403	
6	0	0	0	0	483	405	
7	0	0	0	0	507	408	
8	0	0	0	0	485	414	
9	0	0	0	0	496	421	
10	0	0	0	0	494	428	
11	0	0	0	0	509	435	
12	0	0	0	0	495	443	
13	0	0	0	0	506	450	
14	0	0	0	0	522	458	
15	0	0	0	0	647	465	
0	0	0	0	0	770	471	
1	0	0	0	0	577	475	
2	0	0	0	0	368	478	
3	0	0	0	0	422	480	
4	0	0	0	0	449	479	
5	0	0	0	0	481	477	
6	0	0	0	0	475	475	
7	0	0	0	0	502	472	
8	0	0	0	0	494	470	
9	0	0	0	0	515	467	
10	0	0	0	0	512	465	
11	0	0	0	0	525	463	
12	0	0	0	0	511	461	
13	0	0	0	0	541	458	
14	0	0	0	0	531	457	
15	0	0	0	0	535	454	
0	0	0	0	0	536	452	
1	0	0	0	0	557	451	
2	0	0	0	0	540	450	
3	0	0	0	0	554	449	
4	0	0	0	0	541	447	
5	0	0	0	0	544	445	
6	0	0	0	0	514	445	
7	0	0	0	0	521	448	
8	0	0	0	0	499	453	
9	0	0	0	0	494	462	
10	0	0	0	0	471	476	
11	0	0	0	0	484	491	
12	0	0	0	0	471	508	
13	0	0	0	0	482	525	
14	0	0	0	0	484	538	
15	0	0	0	0	492	548	
0	0	0	0	0	486	553	
1	0	0	0	0	494	551	
2	0	0	0	0	483	544	
3	0	0	0	0	501	533	
4	0	0	0	0	483	519	
5	0	0	0	0	509	503	
6	0	0	0	0	500	487	
7	0	0	0	0	516	470	
8	0	0	0	0	502	456	
9	0	0	0	0	526	443	
10	0	0	0	0	510	433	
11	0	0	0	0	543	425	
12	0	0	0	0	535	420	
13	0	0	0	0	542	418	
14	0	0	0	0	520	416	
15	0	0	0	0	515	415	
0	0	0	0	0	497	416	
1	0	0	0	0	503	419	
2	0	0	0	0	484	425	
3	0	0	0	0	503	432	
4	0	0	0	0	487	440	
5	0	0	0	0	507	449	
6	0	0	0	0	489	458	
7	0	0	0	0	505	467	
8	0	0	0	0	525	475	
9	0	0	0	0	652	481	
10	0	0	0	0	774	487	
11	0	0	0	0	589	491	
12	0	0	0	0	371	493	
13	0	0	0	0	433	493	
14	0	0	0	0	441	491	
15	0	0	0	0	481	488	
0	0	0	0	0	485	485	
1	0	0	0	0	497	482	
2	0	0	0	0	490	480	
3	0	0	0	0	512	477	
4	0	0	0	0	499	474	
5	0	0	0	0	521	471	
6	0	0	0	0	524	468	
7	0	0	0	0	529	465	
8	0	0	0	0	527	463	
9	0	0	0	0	540	460	
10	0	0	0	0	536	456	
11	0	0	0	0	546	455	
12	0	0	0	0	540	454	
13	0	0	0	0	547	454	
14	0	0	0	0	536	454	
15	0	0	0	0	541	454	
0	0	0	0	0	525	456	
1	0	0	0	0	528	461	
2	0	0	0	0	503	468	
3	0	0	0	0	497	479	
4	0	0	0	0	473	494	
5	0	0	0	0	481	511	
6	0	0	0	0	473	531	
7	0	0	0	0	481	548	
8	0	0	0	0	468	562	
9	0	0	0	0	487	570	
10	0	0	0	0	477	572	
11	0	0	0	0	501	567	
12	0	0	0	0	496	555	
13	0	0	0	0	505	540	
14	0	0	0	0	485	523	
15	0	0	0	0	519	503	
0	0	0	0	0	493	483	
1	0	0	0	0	510	463	
2	0	0	0	0	507	446	
3	0	0	0	0	526	433	
4	0	0	0	0	519	424	
5	0	0	0	0	547	418	
6	0	0	0	0	536	414	
7	0	0	0	0	531	411	
8	0	0	0	0	519	410	
9	0	0	0	0	508	411	
10	0	0	0	0	480	415	
11	0	0	0	0	491	421	
12	0	0	0	0	495	429	
13	0	0	0	0	498	439	
14	0	0	0	0	496	449	
15	0	0	0	0	499	459	
0	0	0	0	0	487	467	
1	0	0	0	0	517	476	
2	0	0	0	0	559	483	
3	0	0	0	0	708	489	
4	0	0	0	0	694	493	
